338
502
329
344
309
451
440
476
491
396
372
344
423
517
428
576
501
429
436
445
382
342
421
433
494
411
535
408
416
388
427
459
463
397
359
462
418
497
515
379
380
557
450
402
370
457
352
420
408
472
368
435
536
503
460
470
272
356
529
403
302
354
392
510
501
464
401
357
398
392
319
261
478
429
447
549
264
353
328
351
445
459
357
437
497
504
500
516
408
470
451
304
383
349
313
439
476
502
423
536
390
436
405
548
312
351
492
407
402
333
427
445
518
385
487
463
431
375
393
429
309
400
372
333
449
476
416
428
461
327
541
429
469
485
338
362
448
250
607
564
469
321
387
441
386
394
536
462
379
408
386
538
382
518
371
331
437
427
441
417
406
416
523
458
444
429
459
563
551
229
417
417
413
422
427
454
542
370
432
414
419
493
426
384
435
559
401
359
471
423
380
271
306
490
423
432
455
479
364
431
451
501
450
379
423
465
299
514
387
503
463
282
420
444
365
452
404
438
472
335
342
480
370
481
470
392
372
466
425
454
351
403
427
379
369
425
510
532
434
379
532
531
369
507
389
572
475
362
416
513
477
362
497
401
505
441
358
357
418
456
617
584
428
389
315
512
340
391
495
442
424
505
561
419
424
388
433
393
318
302
483
406
554
560
420
383
495
525
388
397
368
548
321
559
480
391
380
436
417
475
373
403
355
400
506
333
477
448
439
389
391
379
423
288
481
279
471
432
540
433
425
448
420
350
557
449
407
444
433
388
334
436
428
362
505
440
399
368
373
411
400
418
378
457
416
440
483
493
496
491
467
403
381
463
457
520
410
360
449
520
368
383
474
429
458
421
227
434
403
364
466
364
381
371
437
507
428
461
529
300
411
424
490
386
438
512
466
425
355
363
355
493
409
400
318
394
368
387
459
470
439
517
443
463
364
494
359
451
369
510
337
482
438
383
475
414
526
408
428
499
389
460
357
419
502
385
478
451
440
428
440
432
307
379
374
390
442
420
421
414
447
417
493
395
489
431
404
360
469
380
473
440
426
445
488
403
568
433
515
460
385
480
476
354
394
406
467
486
344
420
438
405
410
460
336
416
385
395
324
563
522
449
484
465
383
420
351
408
471
308
427
416
408
457
479
497
333
322
337
442
423
357
429
392
331
301
476
421
319
331
402
415
466
503
421
453
505
393
410
432
521
496
556
375
435
334
407
437
406
485
323
420
438
490
431
365
374
427
417
355
484
521
436
478
513
364
384
452
402
371
410
460
373
437
457
324
459
396
250
508
431
497
404
408
485
447
304
314
274
426
418
416
417
379
367
373
437
386
488
496
404
457
426
465
374
404
437
472
413
486
472
464
406
282
469
436
467
379
347
448
510
525
399
331
396
418
475
477
402
432
388
327
324
450
485
364
378
348
540
407
444
376
430
466
507
278
421
488
400
447
382
343
495
342
320
509
473
434
385
356
367
413
285
496
409
437
427
484
374
442
306
441
405
405
376
460
557
425
501
383
397
441
452
349
540
323
410
331
414
396
406
452
502
369
418
388
362
330
419
485
378
379
567
525
448
378
416
349
424
550
438
427
434
537
487
383
482
467
466
403
444
468
382
395
366
446
400
453
395
407
582
398
399
494
430
328
467
506
365
496
534
408
367
310
394
333
581
452
515
528
444
375
449
422
309
383
452
373
377
316
418
438
337
361
399
399
525
355
370
354
381
437
435
474
554
511
418
421
540
380
504
486
370
353
514
396
295
372
325
409
350
523
452
449
449
351
356
374
372
336
403
497
417
472
414
390
471
416
451
473
411
451
367
323
385
382
392
440
468
407
398
355
332
434
419
409
419
533
499
414
439
452
365
379
381
366
265
528
529
413
295
506
528
464
400
404
501
414
416
487
504
434
317
397
372
510
544
427
464
378
484
374
521
452
482
534
443
396
497
390
487
556
371
453
553
462
456
340
356
424
454
246
395
500
475
488
389
317
414
540
509
424
476
524
415
338
435
349
429
453
433
374
427
432
470
322
347
450
509
387
407
348
353
456
404
537
382
438
357
500
369
462
405
377
425
413
435
421
404
419
375
472
520
481
474
410
525
417
511
383
375
457
460
489
380
452
379
458
490
381
436
420
363
394
422
487
375
425
376
451
443
423
449
451
395
405
486
326
500
354
393
482
381
321
470
423
450
488
440
350
328
394
405
494
551
400
343
396
382
375
492
390
375
331
402
414
409
450
486
373
277
493
503
347
461
444
416
545
355
392
396
557
330
338
395
402
459
364
348
465
344
377
353
369
367
487
508
427
444
314
369
405
443
320
270
568
458
412
467
339
396
417
356
418
528
449
467
397
416
384
344
394
448
485
496
379
468
363
417
450
478
439
284
393
498
387
498
500
488
474
373
442
466
481
325
549
437
487
546
587
398
533
501
493
534
432
415
475
431
445
532
519
418
451
394
466
522
480
485
522
491
614
501
403
501
537
505
491
499
526
469
502
516
589
569
474
570
458
504
501
674
522
518
586
482
644
608
740
535
660
623
566
555
574
641
685
573
694
649
622
574
555
553
664
661
535
723
686
626
705
554
600
787
537
643
696
513
577
544
661
661
658
656
657
650
701
751
651
619
555
585
744
600
665
645
591
698
549
498
636
485
584
594
543
539
457
592
537
443
685
533
726
598
545
539
554
479
576
556
548
633
681
607
468
510
572
644
571
549
430
521
484
515
516
551
407
505
457
354
575
509
434
451
482
526
339
429
466
461
371
467
385
557
502
532
386
465
483
366
582
525
344
457
396
569
592
371
350
456
443
331
412
428
491
455
469
366
550
360
511
446
586
442
377
411
410
423
397
328
442
403
291
404
505
375
434
537
441
555
502
402
285
467
496
615
470
374
396
458
504
454
324
490
296
355
490
487
369
355
486
397
432
363
413
480
361
442
301
458
363
449
363
334
312
353
399
433
414
327
346
278
412
421
300
489
277
507
401
460
397
434
437
528
378
358
458
419
436
278
580
467
467
466
467
459
392
522
456
471
692
487
538
513
574
627
662
530
651
663
606
658
631
673
783
681
637
637
780
770
890
683
698
852
822
901
924
788
776
839
857
846
806
919
971
871
803
850
869
878
833
710
806
868
775
836
874
847
840
748
686
835
844
761
795
535
673
770
659
621
627
643
555
636
567
661
535
456
545
405
458
351
508
362
285
314
311
288
365
362
286
266
294
377
165
244
188
220
152
300
244
212
154
304
148
176
147
203
220
180
235
234
131
215
180
192
190
221
176
238
191
205
219
184
162
173
284
213
113
291
226
253
288
301
362
373
332
393
318
276
331
373
296
323
343
414
412
461
460
318
434
557
307
418
369
514
430
351
373
512
383
338
378
404
416
453
437
328
354
519
541
454
411
342
431
377
426
382
484
434
460
541
512
407
487
433
451
417
468
390
415
382
449
443
397
473
463
434
414
428
342
324
342
491
424
547
434
592
407
417
464
449
483
401
440
411
419
499
468
433
417
508
452
411
494
416
490
481
395
418
450
477
518
446
472
384
555
375
437
432
413
461
389
514
424
471
465
451
504
500
442
399
405
516
442
480
385
445
335
489
426
503
397
541
327
385
501
529
453
522
494
390
318
380
524
492
432
541
506
515
393
465
475
496
370
468
341
496
433
450
392
376
393
417
539
518
478
423
433
555
526
376
415
502
449
431
444
449
486
438
511
495
419
505
607
412
541
471
458
543
448
499
436
462
438
655
527
496
451
505
368
448
488
682
608
600
476
542
573
491
603
543
436
440
545
505
573
551
376
439
535
464
562
523
538
524
679
584
529
481
487
573
537
510
492
568
470
489
505
479
583
600
696
592
638
455
479
527
598
491
568
517
517
513
563
612
668
549
662
548
484
493
499
480
447
615
575
555
599
483
400
553
558
600
519
365
589
354
485
500
458
464
498
313
443
572
431
578
535
512
560
532
509
457
491
518
518
427
410
493
515
442
390
409
506
453
455
478
554
453
466
382
507
484
490
510
413
524
494
394
402
403
445
495
376
396
384
459
450
514
575
454
375
454
544
374
463
337
416
560
486
416
522
489
413
266
411
510
355
563
433
404
471
472
396
361
360
383
410
329
414
364
478
489
319
501
387
552
454
337
347
396
371
459
602
336
416
425
372
456
406
523
528
483
410
479
431
538
340
377
497
459
230
475
450
279
475
379
435
535
572
361
414
411
353
432
398
370
385
349
387
483
422
400
346
425
348
425
410
377
416
385
362
383
487
461
476
397
510
434
459
394
515
498
379
286
378
398
290
420
451
481
338
416
305
344
420
464
509
452
457
439
384
512
457
517
360
306
369
498
443
412
524
444
548
378
300
379
439
376
408
397
383
417
420
477
401
368
447
353
351
321
448
446
336
279
283
382
334
438
462
372
405
393
342
313
560
403
320
422
541
395
331
495
324
366
530
452
436
496
414
488
428
506
424
476
285
498
519
469
441
402
415
428
242
412
451
354
364
569
455
481
526
313
424
382
401
437
299
498
538
445
508
384
361
367
574
442
513
407
456
382
481
400
412
322
370
555
317
558
397
419
310
499
463
432
383
411
453
467
371
351
464
445
510
279
402
529
471
372
438
338
450
496
386
481
429
566
405
419
407
409
284
269
508
398
446
421
489
517
547
403
441
440
570
429
433
537
494
385
464
568
388
417
557
481
443
476
608
506
532
427
419
494
508
480
599
470
524
593
513
487
493
599
617
608
575
524
423
524
390
575
605
536
565
532
446
437
576
515
521
584
469
469
694
522
643
618
639
573
626
649
678
534
548
702
620
690
648
659
588
670
582
633
711
739
634
649
690
569
762
656
728
707
590
637
684
688
630
691
641
662
598
658
613
752
634
569
667
643
618
642
674
536
652
622
649
650
730
502
521
665
540
590
692
632
642
517
712
639
517
511
524
522
435
452
545
531
588
526
580
435
492
609
480
502
494
463
537
401
480
566
575
567
498
523
617
509
516
443
443
453
522
545
346
546
517
437
490
509
518
430
411
506
490
428
566
442
497
599
421
396
482
405
516
380
412
505
284
461
439
357
421
472
469
538
509
401
430
367
452
481
352
461
480
380
442
422
464
359
549
379
398
442
486
460
407
429
532
454
427
408
428
444
393
422
477
459
422
377
415
399
499
446
533
392
451
482
425
454
409
377
262
349
456
428
367
406
270
339
278
351
442
398
440
329
211
348
382
349
377
302
407
380
441
413
335
315
240
319
297
296
346
489
367
367
473
417
324
422
529
485
509
476
488
420
540
545
479
605
606
521
532
619
462
419
674
711
649
685
731
745
573
638
657
644
669
750
584
737
810
685
755
897
750
967
836
858
870
880
810
797
867
888
901
878
934
821
852
977
877
904
842
747
784
902
676
705
766
672
701
703
668
696
743
710
761
731
616
590
577
629
525
581
556
530
382
437
415
390
416
359
441
466
472
334
294
231
311
317
292
350
144
332
162
147
203
276
206
156
258
142
149
109
181
137
211
121
104
92
157
138
282
127
229
206
234
157
205
304
220
249
256
194
185
229
220
289
235
315
261
212
340
325
343
175
279
316
418
304
248
409
421
313
449
346
329
350
356
391
431
440
519
414
299
467
373
524
573
430
320
416
301
476
576
420
332
498
540
415
452
455
538
366
417
388
423
414
367
299
564
395
360
406
267
450
501
471
297
579
443
389
404
419
390
482
447
444
445
390
488
478
451
426
398
501
413
465
355
477
407
325
393
346
411
429
448
401
356
553
480
313
442
459
369
495
541
369
388
466
451
586
480
484
289
441
421
411
531
451
482
506
544
482
415
350
457
255
357
436
438
327
512
548
381
337
511
393
438
332
482
409
384
489
417
450
395
484
346
458
443
421
429
460
425
486
428
472
372
474
446
422
511
429
519
514
349
381
453
463
513
355
477
494
398
484
411
342
465
469
268
469
410
364
373
485
551
465
393
453
367
373
554
501
492
307
478
361
513
526
394
545
405
450
388
509
508
495
305
517
528
490
420
510
387
454
495
520
472
529
437
476
435
481
617
515
539
435
577
602
522
550
508
629
485
611
423
713
539
631
470
486
506
438
516
423
586
487
551
575
595
540
571
591
534
626
574
598
650
445
477
564
481
511
633
553
553
538
564
518
514
634
421
484
415
497
596
456
627
569
517
468
571
422
539
473
528
606
473
483
496
485
462
496
450
440
545
437
502
424
326
468
412
451
497
474
586
407
512
506
456
450
416
499
397
488
488
528
474
413
520
444
533
436
512
519
391
438
456
499
489
414
472
421
440
509
416
560
420
450
467
344
487
529
470
313
534
424
374
444
456
383
434
393
339
424
493
442
500
493
461
403
457
331
425
555
450
385
378
512
448
484
400
372
378
319
466
466
363
425
329
416
485
389
387
446
501
523
331
425
411
432
434
331
450
445
456
432
392
401
398
343
531
387
430
321
484
335
379
423
430
385
370
303
427
315
406
524
477
441
446
441
425
443
339
326
406
375
373
502
353
462
429
422
442
449
337
384
415
420
346
391
344
361
307
429
414
461
445
438
396
455
523
471
369
445
489
458
530
507
271
325
507
542
475
395
501
284
454
556
393
338
338
338
393
467
488
351
414
381
503
362
489
425
349
454
462
422
413
401
464
344
434
375
452
339
523
384
350
436
560
372
518
456
479
389
344
442
493
417
439
367
380
458
478
581
445
505
500
416
334
386
374
474
348
303
388
484
510
408
400
439
435
402
365
483
332
553
442
502
345
483
409
530
470
470
370
452
475
407
499
300
400
494
483
407
325
387
401
440
355
430
459
427
341
343
367
394
342
473
329
476
483
374
380
454
456
468
453
397
456
394
373
407
438
364
437
426
445
461
487
369
449
347
555
396
426
231
507
327
383
388
394
366
530
474
521
426
527
577
458
371
448
523
316
550
454
445
445
342
419
427
543
338
360
341
393
474
476
549
445
494
532
470
547
597
553
612
571
465
628
483
476
595
475
510
476
434
526
600
532
434
603
510
617
605
421
662
545
666
617
759
610
564
540
566
460
605
585
702
574
623
640
636
685
632
604
601
604
693
632
746
704
629
585
643
614
558
672
679
507
650
597
590
620
683
593
651
487
721
612
586
682
689
639
630
660
588
666
577
613
641
641
640
535
564
645
503
714
609
604
667
675
616
558
496
607
502
566
577
612
622
618
542
580
523
587
480
568
586
648
583
512
610
470
479
429
401
404
594
411
486
547
566
498
484
409
468
358
512
493
422
384
369
558
556
497
458
496
502
481
582
384
352
484
368
384
378
461
404
446
551
336
386
430
506
446
571
399
393
407
445
460
396
431
457
525
494
431
451
234
402
371
364
324
366
494
254
380
483
441
496
416
414
454
393
383
430
455
368
488
336
632
360
513
412
467
437
385
361
494
531
514
402
423
604
423
392
329
334
389
473
418
478
370
359
412
300
420
284
375
407
407
364
341
432
466
503
461
349
505
382
352
415
478
472
452
402
366
203
380
371
395
545
337
452
276
338
477
374
426
374
372
433
503
445
584
500
435
471
464
497
523
568
528
606
736
559
504
593
618
587
558
528
723
609
866
698
731
676
775
827
717
894
693
835
863
763
855
781
861
822
1012
812
837
831
872
735
838
872
900
768
678
704
726
873
844
807
902
644
872
886
793
723
853
564
746
626
592
596
641
579
604
450
483
474
520
526
460
509
429
378
404
526
394
326
425
342
251
346
291
250
205
235
301
137
263
164
189
304
138
245
200
239
258
226
124
105
258
130
153
165
200
182
149
246
134
136
191
276
188
252
343
245
198
408
160
316
271
293
204
231
279
321
186
248
265
352
345
328
487
436
509
401
329
409
359
436
367
416
425
461
485
374
301
457
548
513
422
409
386
624
437
464
508
425
439
397
495
414
452
349
374
276
492
413
490
365
588
371
307
509
356
523
526
517
495
372
530
389
473
348
500
320
447
362
511
477
539
471
457
432
241
420
460
385
443
509
423
373
460
482
437
431
408
442
373
436
431
403
450
473
536
413
339
414
529
457
450
436
399
531
414
391
447
382
435
449
430
363
432
550
458
504
384
493
447
315
451
395
410
437
527
405
561
433
479
530
410
532
416
452
391
354
377
508
487
430
419
518
383
291
464
395
391
531
501
379
510
412
469
513
455
400
462
421
359
454
267
427
438
382
472
484
421
502
459
396
452
449
375
507
519
405
501
488
414
545
497
477
504
563
470
443
481
512
513
478
455
342
553
510
508
473
519
498
472
496
382
437
427
630
544
499
440
653
432
524
362
521
583
448
504
524
525
542
437
545
524
542
642
671
467
495
598
433
636
553
593
452
629
534
540
627
426
496
488
407
603
628
668
571
513
395
573
524
536
644
551
473
542
551
400
602
560
565
586
548
478
493
477
501
579
630
456
570
582
526
479
615
493
575
501
505
434
536
503
483
534
473
498
556
543
447
480
460
706
542
468
502
556
536
504
511
531
494
456
389
382
551
544
559
482
375
381
498
515
383
610
496
373
473
553
548
453
522
374
533
526
415
362
387
535
533
482
417
482
391
356
408
429
415
406
464
529
431
590
407
277
433
405
327
463
489
392
370
435
552
465
484
367
405
426
277
422
528
407
463
432
336
449
457
372
435
413
383
403
465
380
496
457
387
469
385
430
423
454
412
475
494
327
487
463
425
449
390
383
376
425
327
502
413
439
369
421
459
379
489
475
397
434
298
408
410
426
330
406
469
511
495
508
527
494
299
450
418
349
443
488
287
380
347
397
248
364
414
413
402
402
388
402
354
322
358
452
512
431
508
455
497
368
466
419
349
412
468
365
351
502
404
381
415
344
533
440
407
513
310
453
417
474
450
417
387
403
415
416
446
453
381
344
464
553
478
420
382
472
448
400
435
438
419
446
337
473
404
428
500
536
400
352
402
362
497
399
487
417
549
399
392
563
374
380
519
482
430
461
404
425
394
392
513
510
508
495
386
296
532
372
431
542
379
296
349
404
385
461
488
443
556
423
467
370
341
433
431
423
451
417
556
374
370
499
504
426
612
491
363
409
387
499
547
398
419
451
485
336
368
448
556
369
392
479
398
507
326
418
458
479
422
499
506
422
427
528
346
412
538
330
442
368
544
353
373
455
342
408
448
448
382
416
415
471
386
500
451
507
402
455
416
496
407
434
485
419
465
512
384
430
544
555
511
463
541
521
421
399
403
463
449
439
487
560
509
450
587
459
511
510
558
569
569
610
451
542
495
421
599
505
567
586
637
558
423
560
544
535
639
532
505
652
564
458
598
626
494
530
611
594
680
612
476
642
690
625
712
662
585
658
653
600
663
680
685
688
642
687
676
557
657
623
700
609
661
634
592
702
538
598
676
730
486
684
496
736
690
585
646
662
653
488
628
689
509
478
637
545
605
663
667
780
651
619
569
533
684
594
486
433
636
609
666
621
626
630
556
580
530
607
430
595
473
566
567
511
575
499
542
294
519
647
419
479
569
482
527
573
585
428
539
522
459
394
400
414
514
453
451
494
445
599
482
387
373
467
419
516
502
470
465
409
321
408
352
507
284
430
448
485
402
385
503
465
415
410
416
364
414
521
599
479
523
459
397
436
407
378
396
474
382
474
491
443
458
469
478
485
425
315
482
392
440
416
461
466
449
440
425
587
388
416
382
361
480
354
459
228
414
637
432
329
443
434
493
343
461
450
540
349
345
404
341
474
407
251
498
356
388
373
291
282
349
349
273
396
388
242
291
342
310
425
387
402
371
358
268
439
418
416
438
519
425
349
433
516
548
471
472
415
506
602
459
522
540
640
551
727
505
576
643
690
646
677
709
745
674
752
703
744
866
777
714
804
810
763
773
761
889
875
855
877
936
845
759
909
955
834
844
803
804
780
812
893
842
780
703
937
862
826
789
796
769
862
872
706
792
664
756
672
656
624
584
524
552
597
447
550
630
415
433
499
301
406
410
488
336
243
337
304
239
360
201
211
190
261
234
326
68
311
145
271
136
255
110
171
185
170
162
111
233
179
62
119
239
123
187
224
263
295
73
82
78
186
202
211
282
273
267
261
180
312
269
261
391
214
342
294
297
330
414
317
355
362
322
353
350
485
364
412
361
356
304
443
519
495
454
479
437
429
387
381
396
437
485
402
366
459
411
509
562
534
437
433
351
339
370
404
446
351
386
388
419
408
411
406
470
426
473
411
438
448
360
372
429
409
567
447
436
490
524
493
453
463
332
409
421
403
507
448
338
434
433
461
405
519
285
287
429
440
472
389
401
303
556
482
420
338
456
434
420
396
392
377
481
357
413
476
434
369
401
422
421
458
445
470
399
411
334
498
331
359
503
444
412
439
461
567
394
437
424
392
397
520
391
367
455
380
336
372
419
396
452
523
463
517
490
388
406
528
355
457
408
410
557
629
470
411
531
495
490
465
369
449
371
456
466
388
378
507
513
419
497
428
347
463
426
416
401
440
401
392
508
557
444
562
471
408
462
484
588
618
514
709
382
442
517
326
582
385
484
435
504
598
447
469
571
324
398
482
453
490
553
544
473
533
636
563
436
591
547
459
691
491
506
518
565
493
501
486
587
562
521
455
514
491
660
471
565
625
528
653
497
608
431
576
556
565
626
550
671
496
469
447
444
545
411
642
654
512
490
511
491
581
630
502
621
502
601
527
562
483
452
495
535
589
540
388
372
533
614
593
447
411
390
545
445
489
374
571
506
555
501
473
511
470
555
460
552
550
625
476
487
458
431
587
345
536
357
413
504
530
493
533
384
449
555
430
518
455
367
447
342
479
501
334
426
483
489
488
505
368
374
532
467
436
418
518
554
402
489
487
346
410
505
477
390
465
349
386
442
442
393
445
596
446
439
416
419
379
291
466
347
490
417
358
466
275
443
404
388
369
508
524
414
369
435
362
451
365
417
467
418
421
363
372
476
398
504
288
386
334
387
500
362
525
395
428
520
352
392
336
420
484
540
537
489
425
434
382
385
508
505
316
428
312
441
511
370
507
410
415
491
489
451
335
501
319
356
440
480
489
405
383
315
454
381
397
421
442
419
392
452
447
417
461
433
467
386
486
438
487
371
424
367
319
411
539
537
339
363
391
355
497
549
429
441
526
382
491
444
353
462
401
529
400
453
361
379
449
402
439
452
339
345
489
437
566
318
356
429
486
383
369
458
463
377
483
542
532
482
445
334
418
387
386
362
479
382
457
382
491
405
439
404
495
407
581
360
466
410
395
434
452
445
391
439
340
214
303
489
471
466
474
581
337
438
408
467
433
484
411
512
431
434
495
449
446
415
449
464
456
370
350
433
368
399
514
422
358
475
378
517
386
326
509
512
517
388
460
388
364
428
344
472
416
483
262
356
554
413
359
364
466
418
453
356
418
474
456
496
388
494
421
371
517
503
463
523
573
527
508
423
440
492
380
414
569
315
554
386
441
461
498
402
521
419
470
591
449
472
503
543
470
579
573
463
372
548
524
493
464
482
535
507
540
530
495
663
467
571
520
543
555
550
549
524
600
536
581
432
712
556
534
675
510
705
646
547
582
647
532
633
610
517
700
606
485
577
673
621
570
554
580
637
648
691
662
757
573
578
676
636
632
518
641
711
603
758
650
778
789
524
662
767
656
746
640
619
604
729
725
693
722
602
761
584
508
642
554
630
628
680
718
564
661
645
532
362
656
457
510
560
540
618
692
434
439
525
570
612
592
400
480
642
545
431
459
366
583
483
402
659
549
499
497
412
521
507
527
495
426
435
419
356
482
389
411
429
447
428
467
389
472
454
447
549
459
375
523
509
428
454
340
474
500
447
264
364
424
410
432
445
481
389
410
400
478
468
500
420
506
320
594
342
432
494
417
323
407
478
483
382
507
432
434
408
451
460
364
444
459
345
450
417
341
442
410
409
415
419
443
517
426
548
484
320
395
398
364
473
373
332
329
518
266
346
321
381
478
418
409
367
448
349
281
447
389
428
217
397
425
434
272
307
367
315
402
287
297
450
305
346
415
355
456
428
455
362
450
420
468
337
485
503
541
544
461
439
555
610
511
511
562
438
568
570
537
655
517
558
603
524
715
818
726
736
704
656
625
653
770
683
659
759
788
868
841
846
826
738
839
864
732
878
934
890
789
892
879
904
861
958
764
831
883
876
749
748
793
761
761
868
802
720
698
701
536
712
656
597
532
666
582
532
454
527
505
481
492
442
419
452
466
312
333
467
384
293
298
208
287
234
284
237
256
316
309
212
199
114
215
203
69
235
334
213
232
161
89
120
125
81
279
186
181
112
244
271
146
202
229
239
119
199
305
95
147
203
292
254
283
182
320
241
332
310
315
316
386
315
437
413
359
451
374
431
423
377
426
469
420
407
457
548
508
380
558
399
482
465
284
323
536
316
432
397
467
527
439
432
491
376
403
547
399
439
338
364
446
456
382
422
417
472
331
440
398
387
530
445
437
455
400
448
397
485
542
357
356
270
384
481
302
444
419
445
496
310
374
483
433
446
410
451
371
550
450
404
324
459
389
468
304
498
414
458
505
470
381
472
395
491
481
460
433
426
542
514
457
495
446
400
362
409
419
455
311
428
394
360
460
502
597
413
463
484
367
451
523
473
359
441
475
354
310
421
333
390
438
479
384
428
450
445
448
377
469
357
443
467
477
421
200
355
475
495
488
543
386
577
513
502
483
397
381
439
362
334
389
490
447
382
561
414
423
556
568
511
471
502
470
530
589
458
425
326
433
387
450
524
485
448
364
428
521
438
486
585
433
535
470
408
507
504
579
500
485
548
423
386
555
516
378
551
400
405
539
427
447
604
495
395
536
502
650
431
533
604
594
478
709
715
577
587
505
515
550
482
532
441
647
515
541
558
509
539
474
585
405
498
512
593
428
457
552
618
512
535
555
569
348
629
457
622
575
498
499
466
606
459
519
440
498
392
461
566
542
524
590
530
539
549
492
481
516
444
551
454
604
326
470
409
582
496
336
528
372
430
524
545
515
507
437
531
401
540
470
377
421
426
531
425
350
372
533
579
362
447
434
371
514
369
487
398
390
367
440
542
349
465
414
418
420
414
425
493
444
376
512
456
432
519
460
491
481
469
486
363
460
483
529
378
422
462
348
390
344
504
473
466
435
432
450
414
510
363
474
414
411
452
601
395
462
457
472
358
492
458
358
438
353
470
401
392
319
373
496
390
410
412
370
394
451
459
471
339
462
406
437
412
510
527
459
379
528
358
442
499
388
439
408
482
338
442
390
414
432
408
369
474
446
416
471
331
398
586
315
476
427
510
435
445
439
512
560
391
469
517
449
502
448
504
470
557
458
379
353
377
396
409
397
400
423
401
387
401
379
410
377
438
324
510
367
538
445
369
463
455
554
527
476
498
425
464
397
378
356
356
512
374
382
392
357
365
271
448
279
466
271
488
458
480
409
386
395
446
446
282
455
380
422
565
456
507
413
381
448
460
456
476
510
280
418
428
469
414
513
539
362
335
472
443
308
354
434
418
501
529
280
507
471
419
431
421
359
474
363
355
488
377
326
438
347
427
357
430
324
408
431
439
358
355
437
306
452
309
376
552
382
457
299
472
474
301
406
432
550
323
352
448
409
383
371
449
328
433
341
373
353
505
470
543
489
480
389
472
391
391
485
443
471
409
528
391
630
441
448
412
356
409
423
478
381
479
392
443
506
440
384
422
463
363
424
543
530
476
647
530
487
542
448
493
460
569
565
446
413
456
434
441
622
577
621
450
508
425
566
506
463
460
492
587
402
511
435
511
617
572
427
523
448
645
590
660
565
581
629
655
631
547
549
568
628
623
707
566
633
552
786
745
719
797
683
648
727
676
504
708
485
662
745
454
716
667
583
669
630
662
758
673
643
687
725
698
556
501
654
675
534
588
585
630
648
678
701
639
635
635
534
655
651
656
568
616
564
616
447
574
690
549
546
600
598
440
558
723
491
531
510
516
577
603
560
483
511
528
487
589
496
526
394
536
373
480
631
520
433
472
400
292
543
503
479
519
573
403
473
500
462
502
405
433
350
435
412
406
462
420
563
327
452
491
505
419
438
380
458
469
458
377
423
504
402
544
438
426
461
361
417
376
434
455
283
435
434
391
385
328
375
367
435
418
363
459
497
352
476
374
488
318
466
445
448
393
478
572
377
435
435
353
427
407
287
507
365
432
405
409
383
318
341
487
438
414
323
404
402
375
400
329
322
407
309
399
314
364
388
418
318
384
373
417
333
350
357
348
462
365
377
436
490
282
449
316
320
341
352
357
405
467
443
446
426
422
618
445
399
507
413
548
528
562
627
479
522
509
576
618
739
541
668
619
753
681
600
686
712
721
717
673
767
727
842
766
718
713
801
940
782
724
859
890
764
947
730
829
861
832
884
925
884
820
796
770
763
912
871
885
761
780
729
708
757
719
697
610
615
693
502
566
607
506
617
546
590
574
501
455
414
392
311
352
434
408
303
414
454
325
312
322
319
228
304
149
266
285
180
181
91
259
217
211
117
265
274
185
133
85
125
136
155
163
222
112
182
195
250
252
53
166
173
159
185
274
183
269
317
166
151
253
268
210
333
181
353
351
222
211
333
460
499
325
365
328
439
347
352
439
340
403
447
456
386
365
418
445
427
260
463
443
474
520
288
442
471
441
460
361
396
432
492
451
469
395
418
512
454
435
384
415
431
412
362
393
420
513
424
474
410
492
452
340
533
479
532
363
539
375
357
345
473
435
464
506
416
417
452
415
438
383
373
540
366
501
389
429
453
382
400
400
495
372
367
447
451
363
577
511
377
467
393
458
414
391
500
418
392
404
452
381
497
451
360
413
352
506
517
360
438
451
399
462
454
330
434
339
497
406
469
494
541
325
497
349
382
394
498
428
525
538
461
297
461
490
437
343
334
397
354
487
444
420
409
467
502
440
386
408
408
422
440
499
505
585
363
329
388
513
503
509
334
418
384
361
439
347
354
366
429
358
408
468
501
329
557
565
331
376
567
371
519
538
492
508
437
550
449
418
506
434
407
432
415
516
437
518
537
502
446
459
436
540
484
389
494
554
473
555
510
526
527
609
448
531
401
503
521
581
493
598
459
480
512
592
524
622
504
564
605
560
517
454
561
566
560
544
516
453
513
445
494
689
452
476
586
446
552
595
482
510
531
485
424
449
592
444
560
601
548
640
626
540
350
541
559
596
648
644
472
520
525
447
585
544
453
455
586
374
560
427
456
392
415
475
478
396
475
456
486
461
520
480
488
467
375
583
405
441
460
394
540
357
448
455
359
432
341
495
351
384
497
481
470
540
469
568
460
464
381
431
326
505
518
379
476
468
450
403
385
358
456
417
368
474
371
434
386
394
456
414
520
528
413
397
633
399
372
528
511
331
515
455
338
432
325
394
446
441
448
469
351
331
313
467
400
473
421
468
397
467
367
450
433
392
374
332
471
485
477
383
388
516
452
448
432
410
456
455
395
504
438
421
395
289
526
489
453
285
405
361
412
380
471
504
477
344
435
428
369
359
466
420
406
435
374
341
405
412
329
450
355
329
382
459
402
435
420
526
443
444
408
511
427
381
446
432
450
449
413
462
535
324
486
373
394
432
477
461
394
455
430
388
479
461
392
502
411
485
400
435
538
304
461
435
486
377
333
350
373
519
526
519
490
480
415
281
461
406
498
436
393
426
493
358
393
483
567
444
440
492
457
492
361
493
422
482
454
452
354
417
439
324
340
348
473
390
391
491
448
389
393
445
406
317
418
406
517
432
467
342
439
483
449
311
499
453
404
483
409
500
411
477
346
457
487
333
409
379
522
377
380
517
469
262
430
304
481
462
475
311
415
424
548
405
496
362
531
420
359
509
461
427
371
313
349
446
493
365
429
390
362
391
359
477
405
408
376
530
388
469
505
478
377
371
474
589
336
375
391
456
454
371
414
372
407
480
432
576
469
469
473
521
474
432
466
505
472
458
418
419
487
441
419
544
528
375
589
397
533
512
344
510
430
435
402
576
499
582
534
508
595
471
467
590
488
582
481
562
628
536
585
602
549
588
595
469
623
700
571
670
633
610
633
595
656
660
589
548
579
621
605
573
743
652
570
658
680
631
666
626
596
686
490
739
650
629
643
603
619
689
697
680
636
732
608
645
705
640
695
581
709
623
602
596
617
667
668
556
659
571
565
630
573
588
571
542
506
548
616
587
685
523
575
610
594
713
565
532
526
540
403
653
495
579
437
501
497
566
515
579
531
491
483
506
572
624
436
474
559
467
636
558
537
510
396
410
437
486
429
372
457
546
436
510
475
588
476
477
503
404
545
517
445
427
467
417
340
355
466
465
509
438
512
469
455
467
429
306
386
384
582
390
365
357
342
413
430
497
404
549
376
331
619
452
466
492
508
391
491
439
412
430
493
418
264
396
511
451
444
403
482
397
485
397
475
494
399
444
347
349
392
407
459
425
483
400
447
356
337
416
385
472
370
416
436
393
378
467
478
383
430
367
356
366
295
330
408
368
410
328
378
390
442
319
504
418
473
431
460
425
334
436
511
366
539
586
534
383
444
459
520
548
517
563
607
512
564
604
607
575
686
683
625
663
662
708
662
786
766
729
715
834
771
751
678
921
839
816
808
813
1023
774
853
1013
809
769
805
846
797
844
829
770
748
834
894
852
825
585
803
709
844
762
650
800
619
753
728
732
816
732
565
628
512
666
407
418
553
502
457
471
361
540
414
370
377
321
280
310
368
302
257
239
190
308
123
235
204
287
268
100
105
61
103
266
226
218
264
197
88
171
292
128
249
136
60
332
197
122
140
191
304
196
195
240
140
300
196
225
358
260
313
349
391
305
324
363
340
291
348
382
228
384
579
403
507
363
338
323
385
501
338
437
331
372
456
384
441
383
528
353
510
481
356
473
597
409
396
472
550
293
373
442
381
354
413
514
421
495
488
492
388
420
396
358
522
386
296
490
500
466
448
462
301
450
457
442
403
385
390
456
379
225
488
402
453
487
397
481
301
473
456
414
528
446
499
524
372
466
468
396
537
483
457
518
464
402
400
301
571
430
377
498
469
439
461
327
594
506
425
444
450
327
576
380
324
498
457
566
478
404
465
475
418
462
404
290
392
475
496
333
317
423
433
324
434
328
418
541
517
474
456
431
376
438
421
391
340
531
403
428
450
631
463
328
338
411
494
474
344
431
446
503
372
392
483
512
427
511
427
388
393
456
448
460
492
426
437
341
405
317
382
416
426
659
452
466
510
438
395
512
425
482
479
357
564
483
295
388
508
503
517
354
521
532
499
485
499
581
524
472
440
492
495
521
584
526
418
401
601
504
583
557
534
561
537
576
590
516
634
589
491
422
560
645
538
405
595
692
533
545
575
590
573
508
476
662
535
417
533
603
669
548
570
554
500
442
486
638
531
531
579
643
464
614
596
578
548
487
542
541
597
511
503
404
678
483
486
484
575
689
577
428
486
439
588
344
466
477
434
521
423
412
492
568
438
377
504
415
450
493
487
454
441
470
417
365
544
388
398
480
364
459
526
430
394
427
386
560
514
401
317
343
519
530
495
426
478
460
420
369
500
424
399
537
376
416
405
444
364
485
514
483
414
457
495
431
453
417
588
381
426
471
444
501
452
457
410
426
463
366
558
435
502
342
422
524
351
315
501
543
315
392
473
499
360
408
368
431
393
370
501
390
480
359
487
375
493
446
458
422
416
416
538
451
434
320
394
450
523
441
335
528
470
438
434
398
466
467
365
479
470
408
486
397
533
376
468
377
476
391
357
408
457
508
573
408
424
512
446
477
493
445
326
428
433
394
326
461
369
405
501
437
464
363
457
499
554
425
390
306
519
494
462
368
424
527
466
411
477
451
394
509
304
398
383
426
380
462
453
497
382
472
471
311
573
601
423
455
346
512
417
353
494
519
394
409
455
395
449
466
426
377
436
485
465
331
404
421
396
456
376
495
311
347
477
431
260
358
337
596
542
429
430
330
464
460
426
537
516
286
404
446
400
398
410
420
478
326
356
457
276
420
437
328
467
465
464
467
432
490
505
420
401
524
504
339
316
505
422
386
363
422
270
291
406
437
553
409
454
437
439
429
485
486
387
455
516
422
412
546
454
358
345
416
377
383
446
405
438
457
249
438
362
416
364
412
468
539
533
487
460
415
485
472
420
382
441
477
372
409
485
416
381
466
526
458
361
381
466
462
463
400
451
511
467
452
432
339
472
427
434
478
451
526
548
472
442
452
465
525
542
583
463
561
544
465
658
565
355
439
459
481
522
516
489
596
499
592
534
649
660
540
707
527
583
533
575
588
535
595
640
688
650
749
604
674
594
739
580
742
667
605
523
625
644
669
758
704
684
684
632
622
672
701
630
734
590
674
623
617
599
631
680
571
614
559
517
614
683
645
553
643
605
590
814
730
665
682
709
576
658
674
595
529
554
655
522
500
611
547
564
568
648
582
523
520
540
459
475
507
637
574
600
609
420
386
555
533
570
505
528
401
457
369
428
476
594
448
492
407
518
382
442
459
369
577
445
490
517
217
386
388
415
409
404
514
533
490
534
460
511
498
403
386
309
501
426
461
472
437
435
450
361
402
314
451
392
378
351
319
437
408
429
611
358
446
451
471
437
487
387
314
392
507
439
413
394
439
399
390
351
345
431
381
503
452
402
426
506
428
377
423
459
459
402
441
322
393
415
390
420
545
381
253
403
405
368
420
453
445
466
508
436
288
373
379
258
287
434
370
358
399
338
415
365
468
390
299
335
359
434
372
300
472
455
542
342
454
395
359
435
397
518
389
491
452
555
537
545
485
529
557
466
555
539
712
575
603
622
619
630
518
725
523
629
711
696
832
703
793
755
696
709
722
814
783
795
764
806
830
812
815
861
910
954
886
728
895
947
898
878
843
634
866
789
772
849
702
841
730
640
817
758
718
637
757
631
564
619
689
564
451
546
565
448
475
473
338
442
402
453
517
349
507
425
344
238
282
335
279
380
353
254
325
229
83
241
172
166
202
195
183
191
279
259
226
257
155
237
221
208
166
308
213
185
208
176
206
101
148
238
292
146
204
237
180
179
174
182
221
316
204
217
266
347
325
316
283
368
424
392
455
383
410
455
317
378
473
322
470
437
504
415
383
397
472
337
487
479
384
559
276
349
488
418
385
326
352
333
339
577
297
429
331
348
471
434
399
380
474
486
462
571
514
431
426
407
400
363
469
320
376
370
460
393
430
458
493
419
366
411
278
364
347
441
412
426
414
582
413
447
386
417
573
456
572
446
546
322
394
493
413
336
461
340
408
488
391
390
328
483
379
416
474
451
432
409
448
507
340
389
474
536
313
499
307
466
382
455
542
399
458
462
463
387
316
404
358
432
537
602
454
492
367
444
440
449
490
373
379
564
472
474
393
410
471
438
451
463
306
386
367
484
533
381
465
511
444
386
525
425
525
378
583
369
524
385
380
485
415
449
605
441
455
387
494
431
453
451
473
566
429
516
531
282
537
471
462
557
442
517
340
405
515
462
484
532
519
543
444
566
534
479
422
547
539
490
468
607
491
397
508
493
481
616
555
547
431
466
482
508
571
480
509
608
482
500
600
623
512
624
566
520
587
561
562
635
505
617
604
464
588
506
525
517
541
494
582
522
518
560
614
607
496
617
472
598
525
573
579
635
579
462
643
562
461
548
462
578
614
491
564
421
541
563
401
520
562
484
418
596
446
508
472
480
632
463
435
439
567
515
463
468
546
465
508
443
546
524
445
511
482
439
454
560
463
507
439
425
467
522
419
517
440
331
586
452
416
592
555
402
475
528
512
448
391
316
377
421
445
447
475
462
446
515
485
413
364
464
345
462
381
391
577
519
410
469
365
286
362
380
588
307
375
356
444
491
404
470
349
417
434
418
511
385
523
508
438
351
447
471
479
455
419
300
510
459
393
429
422
336
396
476
442
367
455
364
382
476
423
340
355
358
437
432
432
497
528
442
485
487
375
297
407
427
452
333
386
332
340
438
353
333
418
353
434
450
457
494
478
452
432
523
374
395
391
462
366
344
392
391
486
295
379
380
541
413
341
425
300
427
458
493
528
442
305
380
450
381
404
340
501
448
475
497
438
370
512
383
343
401
399
360
498
399
488
362
468
497
443
353
417
483
506
370
389
486
529
440
456
459
345
444
408
518
455
474
422
448
515
453
471
399
423
484
518
340
374
341
291
348
409
363
371
509
361
342
569
551
423
437
525
513
412
390
449
487
416
402
444
294
381
397
452
324
469
372
268
427
454
408
437
435
468
408
375
278
454
423
401
416
470
395
489
529
320
416
403
474
319
406
419
374
390
443
371
415
544
445
504
415
497
417
453
536
324
396
392
375
488
413
190
493
344
391
341
456
446
478
470
451
334
477
453
438
491
384
509
444
468
509
444
411
376
520
354
489
421
405
464
415
476
440
515
411
413
386
535
399
536
431
529
466
388
455
454
599
545
476
442
519
447
434
525
511
512
550
513
460
547
478
528
544
515
419
572
523
549
419
516
576
582
560
531
642
643
634
654
556
599
658
680
522
555
539
579
602
594
600
571
689
568
448
410
581
581
805
708
696
616
575
595
605
661
611
622
617
666
620
607
690
517
689
609
573
625
610
676
574
610
636
566
544
653
673
712
635
471
615
695
670
542
795
586
662
699
710
574
606
601
659
477
657
523
696
637
575
663
591
629
580
526
595
632
438
577
606
506
601
542
604
535
510
458
488
537
519
478
571
486
422
465
506
678
569
446
514
381
572
466
619
457
529
543
424
486
410
377
509
384
463
429
504
515
515
422
498
390
409
323
501
407
458
507
416
437
454
386
477
390
373
556
311
562
404
443
368
433
292
426
489
475
606
375
447
520
498
339
408
391
351
399
367
396
517
487
467
474
448
495
488
401
428
361
317
452
482
279
369
405
320
461
449
458
470
249
526
351
442
504
436
410
369
413
228
466
412
407
390
415
354
320
350
349
309
392
310
425
410
425
439
308
361
418
418
311
304
382
319
350
413
473
418
405
417
483
346
373
468
428
493
453
569
377
465
474
436
561
479
416
442
565
520
579
511
532
675
622
540
509
616
672
710
721
749
770
624
719
726
759
818
709
870
806
737
875
853
884
677
964
936
903
739
744
833
802
953
737
869
854
918
811
813
894
844
772
787
781
815
850
719
739
771
832
813
746
561
621
658
735
537
493
593
566
513
415
467
440
408
481
410
449
388
365
227
337
332
239
274
310
260
248
221
175
203
137
312
125
276
161
228
190
249
296
244
207
272
116
216
38
2
190
241
214
81
168
185
155
162
156
177
209
162
239
192
156
241
191
349
349
319
284
291
368
343
282
396
279
266
304
455
400
418
456
445
466
364
359
425
551
394
460
515
436
376
466
564
508
396
321
511
598
446
470
316
333
603
397
356
373
484
459
424
355
414
422
402
548
409
517
459
449
421
496
456
343
472
432
448
467
382
346
368
381
474
421
464
470
418
508
490
313
412
355
491
447
500
425
331
560
459
413
532
305
429
321
373
387
488
538
469
379
420
407
534
420
406
362
545
436
429
373
461
425
422
398
428
475
363
476
406
407
404
334
449
360
466
321
341
439
424
419
427
314
438
363
436
430
543
567
456
446
429
476
454
418
417
463
394
461
490
453
443
343
467
419
495
486
502
440
552
503
385
452
452
371
487
440
405
426
454
487
473
335
321
412
515
407
439
412
368
460
487
481
534
374
464
357
600
568
428
372
606
471
399
433
458
536
509
456
422
397
422
415
589
445
500
487
475
558
528
528
423
534
436
516
556
424
527
473
471
413
521
627
514
553
469
549
532
601
622
502
628
631
477
564
637
613
501
499
583
527
458
548
519
545
555
561
562
618
516
687
516
592
400
498
582
592
593
559
568
657
579
481
481
584
690
492
543
485
576
702
493
506
491
636
478
489
479
459
520
478
481
619
396
579
429
549
633
628
576
449
453
435
623
579
472
584
506
476
518
516
397
346
479
498
492
531
541
576
418
418
447
412
449
571
438
566
519
546
479
491
335
430
505
496
452
499
477
380
414
566
442
444
490
450
475
321
340
432
436
342
493
364
370
399
482
437
358
463
436
407
422
455
367
390
466
366
403
446
361
341
284
340
441
433
365
429
410
389
392
444
514
418
464
574
449
462
438
432
302
346
424
412
458
335
506
428
394
461
412
520
424
394
490
370
424
291
427
385
479
436
323
359
329
452
440
429
413
452
570
488
501
465
557
509
308
514
379
365
507
454
355
356
377
468
449
479
536
410
339
517
364
353
480
386
437
421
428
433
489
491
431
408
450
469
406
475
373
509
284
347
355
476
489
383
452
425
382
438
403
389
354
401
500
306
405
445
391
385
439
492
287
460
433
375
454
346
567
402
482
414
515
456
372
349
334
444
394
347
488
494
377
374
426
468
335
496
513
400
432
476
438
476
321
432
480
422
360
418
413
437
438
549
418
465
342
431
335
395
439
430
425
434
503
383
423
473
500
456
491
454
446
459
445
411
365
366
363
296
362
463
479
447
477
292
510
361
351
505
478
495
306
537
487
455
390
482
462
506
413
434
436
479
588
346
424
417
457
395
449
396
450
506
493
498
410
250
477
311
504
438
588
469
327
463
426
444
443
487
430
418
420
427
578
570
397
404
396
404
482
429
489
436
595
487
446
387
455
490
355
479
375
384
536
415
571
543
603
386
482
311
451
431
464
482
424
390
548
475
499
379
499
551
593
486
461
554
402
589
488
469
544
476
450
427
477
562
578
529
481
595
527
574
567
538
666
549
573
494
578
546
514
549
593
529
519
575
672
587
623
703
728
524
628
641
652
642
628
672
696
608
628
711
662
725
600
644
761
584
710
612
803
544
694
573
605
728
682
783
562
586
608
744
596
708
635
655
676
672
689
720
742
706
638
589
734
628
635
608
568
647
629
612
600
615
512
686
587
549
534
473
528
620
571
458
497
549
547
425
588
499
552
552
641
547
485
551
488
468
517
587
438
467
396
454
429
464
413
458
508
577
608
490
336
531
449
458
554
492
416
362
453
415
462
431
297
374
446
406
559
329
472
354
349
396
436
427
304
356
474
402
362
545
415
429
377
430
523
379
388
466
495
418
527
463
511
345
511
338
411
476
505
456
382
424
477
444
370
400
381
339
314
455
393
388
326
372
439
453
485
367
366
507
419
395
462
497
403
440
382
402
322
433
428
414
357
387
414
347
273
390
362
207
314
385
385
381
365
208
429
353
281
421
429
377
449
389
385
321
383
402
332
458
359
365
409
312
376
461
419
467
480
448
532
375
467
435
446
509
465
576
535
633
660
632
693
493
504
525
563
805
674
722
795
714
720
689
812
726
703
812
625
703
720
761
751
755
832
809
847
854
841
762
833
704
924
853
838
784
942
787
860
860
837
751
798
854
632
712
796
804
720
808
772
546
751
618
614
720
648
633
617
478
648
593
383
458
499
504
416
352
356
394
468
248
329
331
311
378
185
172
354
372
263
282
317
261
142
257
199
226
334
224
176
202
227
130
173
209
127
182
181
172
170
265
319
197
154
285
198
173
226
81
265
167
140
291
247
277
268
145
290
197
338
241
421
411
224
410
276
390
229
448
507
335
449
457
343
495
383
463
477
387
444
375
566
387
349
363
443
390
262
495
327
416
494
409
439
506
506
392
359
427
470
304
420
530
431
279
519
465
456
488
446
424
453
338
477
462
511
440
403
440
422
304
437
416
441
411
442
382
536
365
415
493
459
433
366
510
525
398
483
459
455
409
425
511
442
429
517
551
498
527
338
467
402
351
491
509
454
485
335
416
582
414
536
435
452
425
347
512
463
365
385
430
388
465
492
305
393
364
439
396
523
403
376
471
449
456
485
361
459
329
467
412
441
472
472
369
449
510
453
359
435
488
376
373
395
354
386
412
382
391
324
429
284
525
389
498
403
424
431
455
402
398
337
439
420
443
455
421
515
411
402
516
370
376
518
483
611
424
344
431
410
516
393
519
479
414
424
496
469
434
514
447
495
525
440
366
522
449
481
387
510
436
462
496
519
675
522
483
477
417
603
578
487
499
527
541
582
543
708
537
453
508
467
547
635
576
440
575
556
533
523
618
611
534
555
462
559
582
625
556
523
513
609
622
626
578
474
474
636
572
498
547
542
594
501
575
722
582
503
441
486
614
517
517
536
586
494
504
517
578
504
554
527
556
483
543
462
505
578
605
545
515
495
641
562
523
559
561
460
528
483
447
661
503
484
524
434
498
471
404
570
496
495
411
480
567
421
486
596
461
395
467
383
514
532
573
473
436
380
563
535
318
451
456
476
345
347
381
450
401
390
476
423
363
415
417
341
418
393
425
361
240
417
337
358
381
516
442
442
480
371
581
405
458
339
447
418
475
550
431
485
344
359
459
389
438
479
345
423
337
425
405
440
504
421
348
434
377
434
455
365
497
394
385
558
358
424
334
605
436
421
504
480
499
424
405
320
366
404
276
337
411
387
395
391
485
327
289
435
391
449
341
360
438
350
364
395
357
461
417
330
473
410
533
477
491
331
446
406
391
505
445
405
525
346
370
347
409
406
475
360
428
452
423
524
452
381
485
404
397
349
539
433
469
287
464
438
449
340
446
443
390
567
486
338
484
428
458
345
411
551
429
490
475
336
426
322
392
359
509
451
435
404
477
366
348
455
508
379
400
468
369
438
495
373
454
442
433
390
389
399
469
562
467
391
396
443
395
418
472
441
373
378
358
447
397
422
519
518
389
494
458
351
465
424
376
451
460
503
414
358
440
478
454
465
462
434
426
461
405
524
418
454
512
411
416
495
394
567
454
440
396
381
332
379
456
416
422
381
367
423
442
400
447
360
417
468
408
545
360
355
493
355
462
541
472
367
466
418
390
339
521
436
412
413
479
484
437
472
381
452
464
543
386
452
427
515
446
557
397
479
595
567
376
393
500
484
455
394
502
364
450
432
484
398
481
517
513
373
451
522
521
473
534
476
449
516
626
358
604
526
555
553
557
522
550
574
548
565
569
506
512
619
545
570
673
589
524
560
595
461
607
449
560
635
699
492
573
572
592
623
678
592
726
603
761
540
606
581
562
653
635
549
616
623
706
735
605
605
727
658
688
592
671
666
591
665
766
574
627
769
605
658
683
591
688
504
706
614
654
664
617
477
548
746
619
624
577
608
595
483
521
579
783
486
584
621
496
618
541
504
510
568
667
562
589
571
609
544
566
476
485
439
443
514
514
420
536
383
461
581
483
482
521
400
508
456
487
439
564
484
466
405
513
567
442
536
361
450
547
423
356
472
311
396
495
495
494
470
458
496
372
572
418
419
470
445
504
323
330
475
500
396
320
424
511
466
473
515
366
394
504
369
425
544
394
470
479
377
344
371
519
454
521
463
452
501
461
422
405
498
433
493
401
472
375
383
425
443
439
495
436
421
475
478
384
287
445
370
585
438
381
228
485
296
399
290
413
391
400
352
396
304
303
316
337
443
376
284
320
314
492
309
390
352
330
358
354
320
457
450
398
419
542
401
478
380
425
507
521
535
585
463
477
403
532
690
456
465
427
526
515
495
637
556
581
699
692
696
756
741
758
689
760
798
812
737
587
802
877
837
774
809
840
852
819
717
869
813
922
776
874
869
857
852
891
918
899
750
846
871
698
715
736
842
657
775
620
770
713
701
734
702
719
613
677
681
587
567
471
571
617
544
549
460
362
354
415
409
403
346
263
268
331
297
195
307
318
285
123
357
384
295
334
223
169
140
154
87
166
244
133
149
351
64
115
144
159
177
166
139
152
163
229
188
239
303
207
158
169
300
173
178
211
260
134
191
283
236
360
152
395
375
400
354
408
407
345
402
381
349
386
578
358
472
516
403
381
398
283
521
407
421
389
537
466
507
489
343
416
557
440
375
398
468
536
439
382
449
408
296
540
375
470
450
434
404
471
472
422
474
371
544
492
443
310
391
292
448
495
409
421
429
444
435
573
499
414
416
470
419
454
347
470
358
305
433
416
478
441
609
408
423
481
400
382
467
436
374
408
339
486
366
408
459
297
364
486
414
460
438
401
327
306
500
432
437
455
575
429
472
350
396
394
338
448
420
378
495
405
397
455
475
462
311
475
446
414
446
367
422
512
475
456
432
297
343
395
305
475
398
456
440
421
395
500
430
432
449
321
444
461
531
452
456
419
301
519
377
487
401
417
491
460
459
320
455
460
438
499
383
486
400
462
490
287
507
293
624
463
503
400
479
390
562
490
462
543
469
441
418
589
462
514
410
546
437
357
489
463
567
379
528
424
584
368
579
505
574
502
471
570
560
554
449
525
605
568
491
527
440
530
459
418
527
559
544
395
614
551
514
604
468
525
554
619
528
471
517
571
476
531
550
632
573
595
374
502
538
597
525
528
506
558
552
503
574
606
631
580
496
535
503
512
563
533
553
600
432
516
575
459
684
504
546
462
522
439
596
503
512
552
523
494
588
550
516
425
474
480
506
539
432
410
344
542
433
519
550
534
528
530
456
471
517
470
566
461
481
545
612
429
446
507
313
383
438
514
396
412
513
289
418
435
357
389
479
462
357
556
433
365
386
519
447
509
422
356
455
391
418
488
406
493
521
475
495
458
481
369
405
422
533
351
420
529
452
498
411
508
369
437
413
434
475
342
438
423
468
512
342
433
334
357
390
329
391
466
325
403
504
303
375
414
521
327
374
446
368
394
392
281
413
395
308
385
437
441
363
384
463
427
419
386
363
454
541
387
464
526
388
417
416
486
434
369
392
526
355
417
358
450
395
434
481
385
446
495
468
376
468
510
455
398
375
376
398
460
410
444
395
298
342
564
260
426
516
416
346
377
466
431
453
448
412
314
446
543
451
447
504
373
378
466
484
490
424
450
392
487
328
436
444
490
434
451
368
480
393
399
462
426
423
342
468
439
385
421
346
305
489
361
414
383
450
356
303
366
362
390
438
396
351
482
380
565
482
491
383
453
455
509
424
452
488
286
441
379
580
432
401
381
388
588
495
462
441
364
428
270
360
384
345
363
534
551
315
365
442
420
510
393
349
515
393
346
438
347
329
363
425
393
437
485
455
360
510
372
486
445
383
362
397
391
383
489
314
354
430
418
320
427
428
360
419
326
312
482
438
457
390
483
530
287
573
381
440
462
481
515
449
455
399
414
396
563
375
491
408
385
409
366
438
362
517
496
402
564
485
405
393
561
585
348
517
278
494
473
350
456
634
456
431
427
501
524
511
636
580
545
565
638
538
441
460
563
617
560
511
442
666
441
719
597
578
522
387
666
666
591
590
580
530
657
665
520
535
592
511
632
637
633
646
595
602
599
639
558
657
691
730
536
652
678
649
663
681
538
686
615
741
694
584
580
584
738
674
557
488
505
596
730
611
577
591
518
620
700
546
638
667
624
554
677
638
596
654
755
647
603
631
671
628
713
517
567
541
589
629
550
522
567
518
592
560
537
491
491
603
559
563
564
609
646
559
648
502
507
478
556
475
459
467
454
494
511
503
505
499
489
542
631
456
505
402
418
518
515
394
459
466
481
461
534
350
552
513
590
409
352
539
437
470
529
447
528
382
412
342
387
394
471
505
417
488
436
437
414
460
354
429
395
547
418
471
494
454
470
440
313
444
500
538
377
469
420
462
473
416
328
475
349
528
390
401
558
421
348
529
384
375
316
483
553
523
389
288
364
449
392
402
338
351
367
403
357
380
210
337
364
418
330
404
461
341
296
339
330
392
202
324
327
313
341
345
413
305
459
299
292
472
447
417
380
379
424
450
416
282
400
566
419
567
530
502
406
608
454
538
515
505
608
585
545
563
718
520
656
749
700
659
659
664
755
712
657
686
742
720
770
733
772
812
883
775
756
802
790
821
944
861
957
908
912
816
941
825
722
911
889
834
912
702
800
731
710
657
627
656
617
686
700
716
615
677
684
585
541
581
636
631
468
480
437
449
508
504
403
276
350
370
372
217
376
237
235
360
348
362
210
72
244
249
243
216
182
151
72
161
224
43
241
254
208
127
291
231
201
189
184
164
256
293
241
248
247
139
217
144
272
199
251
191
233
114
251
300
205
285
406
399
309
261
144
232
351
348
298
400
424
310
408
361
422
407
581
482
489
398
366
505
464
375
423
480
334
455
538
543
391
360
441
370
415
435
350
350
314
420
403
578
423
402
351
439
392
303
350
508
570
443
304
318
529
483
314
443
485
472
392
415
469
429
480
339
330
543
381
454
373
482
420
507
408
435
530
385
439
399
390
418
348
402
334
476
433
505
473
430
548
440
328
428
531
480
443
460
404
390
434
457
428
529
345
403
393
384
481
397
487
515
354
518
390
375
502
514
472
408
448
329
383
362
474
364
418
419
388
403
563
463
425
338
373
515
368
466
431
533
496
543
419
343
463
570
538
438
442
467
430
312
394
491
534
514
418
382
477
544
456
375
542
461
516
520
535
327
570
506
494
383
513
399
503
500
537
523
530
417
443
376
532
445
496
479
468
414
374
573
549
492
414
477
482
499
411
417
455
510
489
525
554
413
413
457
470
485
513
572
572
556
525
529
583
536
439
633
457
609
494
520
504
498
549
497
478
557
582
509
595
485
530
523
485
525
469
636
529
477
466
577
526
468
565
492
569
613
540
586
535
509
533
460
588
551
584
431
558
583
560
486
499
475
616
730
468
571
423
643
524
530
494
569
528
461
660
535
552
428
500
615
652
392
602
599
439
576
454
372
521
407
437
525
437
600
482
483
422
448
561
549
569
456
340
429
464
397
485
427
552
518
507
489
536
526
412
361
453
456
361
495
442
434
438
487
409
454
458
586
420
575
379
341
358
474
462
377
443
504
483
427
444
435
602
419
367
442
427
379
478
406
270
461
468
523
434
422
415
491
395
452
478
543
321
501
404
416
358
438
502
477
405
508
417
479
442
443
464
376
527
303
349
575
540
383
453
466
328
442
431
370
435
382
336
478
464
440
458
431
396
414
493
342
309
372
551
414
436
395
435
432
496
432
408
438
400
452
475
456
329
355
402
293
394
440
374
376
362
406
355
509
311
298
434
365
367
383
396
504
446
393
402
377
477
370
381
269
411
394
495
426
471
377
520
335
385
475
412
499
458
308
408
454
470
429
325
488
393
391
384
526
568
308
373
359
378
463
396
360
422
398
379
503
333
262
451
362
523
434
353
360
438
391
444
442
481
452
385
377
416
462
452
493
412
266
422
423
517
459
333
458
442
510
507
361
433
410
569
400
419
389
448
347
443
493
353
304
447
407
436
224
302
401
501
403
523
386
524
435
518
428
422
393
356
409
458
450
452
466
554
446
447
427
482
450
401
386
421
507
432
474
537
390
519
521
412
478
474
437
597
325
482
360
446
479
474
353
555
492
455
425
420
370
560
494
397
564
541
365
387
382
489
494
421
353
428
506
441
446
411
456
484
485
472
389
405
622
401
473
436
464
447
432
516
512
511
547
480
402
455
520
563
506
542
432
396
510
557
515
539
520
534
303
548
551
633
505
524
521
496
507
394
551
630
492
544
630
614
568
580
661
507
490
549
631
547
581
494
608
650
548
645
655
589
715
726
660
576
596
788
618
673
678
639
613
545
647
676
632
688
606
701
740
706
761
658
614
669
594
764
729
721
477
576
623
740
641
525
556
665
485
608
626
630
654
753
701
635
589
598
649
524
552
554
644
621
615
653
613
683
518
406
533
590
560
473
585
479
483
475
502
600
464
438
501
519
472
516
634
483
491
350
473
489
303
491
472
544
511
378
514
421
454
456
433
419
433
495
533
444
397
476
583
519
398
446
409
445
346
450
400
364
344
403
440
469
431
467
376
425
424
415
472
391
282
381
467
456
421
479
579
451
452
528
480
488
439
500
390
372
219
366
380
490
356
399
520
412
394
338
506
430
439
357
497
321
484
397
364
462
468
428
406
267
392
289
546
333
334
439
355
455
340
451
344
312
351
349
346
310
425
358
340
274
371
411
322
450
440
359
349
440
233
381
409
338
342
296
511
465
447
313
349
391
310
506
346
547
593
416
407
423
453
501
427
393
544
564
528
401
602
520
569
527
506
615
581
681
754
780
694
732
711
678
709
692
831
712
702
770
799
793
876
821
810
725
861
773
804
775
782
854
833
823
809
852
875
838
782
877
723
753
664
766
724
752
778
835
560
741
623
759
698
629
590
743
652
558
542
434
544
537
505
502
546
502
526
332
414
469
454
233
337
348
292
281
216
299
237
274
299
177
272
214
122
302
85
186
230
149
134
187
189
286
107
70
103
170
126
206
217
151
144
70
174
57
151
250
225
221
157
249
252
295
213
265
271
234
234
344
299
259
350
328
308
339
312
310
400
375
359
412
428
448
401
330
258
421
401
429
488
362
504
424
406
497
425
309
507
432
392
413
490
517
457
473
389
417
558
553
517
423
432
503
249
382
356
383
379
435
456
486
519
351
445
329
451
464
519
451
400
353
390
406
553
441
507
286
323
483
398
469
503
321
396
423
480
436
537
466
427
499
479
491
469
467
502
443
506
396
359
312
372
443
587
439
445
388
440
441
457
502
507
535
480
347
317
398
465
344
493
438
393
414
418
391
482
410
436
409
371
363
564
484
253
524
345
283
460
422
394
385
458
534
497
324
413
510
397
369
498
412
596
459
520
471
450
467
406
558
465
484
373
443
446
404
433
458
491
466
549
420
505
472
399
595
473
409
414
389
452
409
396
484
491
464
536
440
382
486
498
439
507
581
527
519
475
538
468
431
539
439
550
356
566
412
392
423
526
555
488
470
342
534
483
606
418
529
517
530
487
404
382
543
442
542
488
474
463
567
507
621
502
470
448
573
589
647
373
551
513
564
633
603
602
549
594
497
483
669
601
518
541
484
491
495
474
549
556
497
479
585
590
680
616
497
677
557
620
561
561
510
511
510
416
614
632
557
634
450
508
493
572
456
464
493
477
626
513
387
434
494
473
523
384
487
532
368
574
431
442
489
564
398
569
487
452
452
480
435
407
426
462
420
466
434
428
533
394
432
431
465
504
497
508
571
456
450
461
487
511
404
472
445
460
363
278
550
487
429
434
540
414
392
502
328
410
475
495
402
563
417
394
457
405
469
300
313
384
291
417
400
440
420
486
420
263
407
538
410
404
350
459
410
531
396
485
303
392
472
486
477
366
428
472
445
390
373
392
498
345
459
478
527
392
384
405
329
482
398
352
404
460
378
446
470
509
421
360
494
390
397
399
345
260
411
431
408
378
432
365
353
457
415
402
485
407
514
270
285
433
418
303
483
351
425
385
406
461
452
305
438
404
393
493
383
372
465
507
437
538
455
445
473
425
365
518
448
384
417
464
413
489
416
412
455
443
431
369
494
470
468
526
391
645
471
418
523
344
410
425
417
394
394
478
515
436
393
314
500
348
370
482
389
446
305
408
420
304
342
399
354
446
432
358
400
374
595
531
432
433
379
503
490
418
532
386
410
461
538
351
384
546
502
570
487
398
405
436
473
373
333
357
563
315
413
378
412
401
471
425
525
460
579
336
433
515
448
363
269
380
400
422
380
559
395
442
374
397
373
322
383
329
512
255
332
440
447
456
498
363
404
494
344
365
479
313
442
450
485
406
493
315
375
378
381
409
377
391
375
421
472
430
443
434
449
365
363
587
365
356
549
470
561
547
480
394
470
534
477
500
448
437
422
393
498
444
571
564
460
481
415
537
540
590
523
480
497
491
508
489
478
477
570
460
559
487
516
552
531
535
551
596
550
536
518
466
693
619
581
398
557
490
540
570
550
595
545
492
595
542
582
618
645
641
592
625
642
592
749
604
712
719
519
511
638
611
570
622
699
673
589
676
525
789
724
630
585
574
644
698
633
662
795
659
695
596
611
724
587
624
644
591
501
712
777
672
704
647
661
614
521
544
536
553
611
643
558
598
521
485
661
650
575
579
621
659
640
729
461
622
441
604
581
489
597
542
599
493
417
446
415
439
589
455
455
412
492
644
536
538
455
517
502
437
394
460
466
487
531
380
503
497
432
335
437
482
473
534
475
517
539
489
329
429
528
383
372
244
364
391
425
395
473
445
452
389
526
430
379
508
337
423
444
291
411
337
535
486
358
406
472
360
335
419
460
395
492
506
385
573
515
389
320
474
415
429
428
527
373
530
435
490
437
380
521
483
414
417
400
372
408
473
427
336
420
413
381
331
444
415
392
389
448
388
470
442
408
388
401
415
342
334
377
363
345
356
354
422
384
344
385
391
294
397
326
402
414
476
311
357
396
388
399
401
440
471
488
468
460
359
431
481
446
560
474
606
543
578
532
625
452
614
561
665
807
576
588
626
668
710
695
607
734
639
670
787
844
854
852
881
822
797
805
804
693
818
846
890
877
929
845
878
860
892
942
996
781
884
845
817
863
781
812
753
966
721
745
878
773
698
719
688
616
655
562
726
574
658
508
625
531
471
474
420
496
463
386
432
408
307
402
286
403
258
297
333
370
277
256
237
314
335
301
209
198
148
196
68
178
180
208
133
303
149
231
143
143
159
89
187
189
169
199
89
171
74
124
168
197
218
250
260
282
192
244
153
388
187
268
326
300
468
502
357
394
419
304
522
386
382
473
544
442
461
415
350
375
465
264
400
488
449
529
459
436
419
469
456
457
297
357
472
389
484
350
461
593
417
440
460
446
612
517
402
537
439
340
621
443
382
366
454
439
414
472
479
348
467
549
531
440
527
529
448
444
466
449
562
353
390
365
504
537
426
361
320
468
409
274
412
495
430
407
544
414
478
526
461
394
397
378
445
428
461
599
494
416
363
349
355
350
435
418
500
323
411
506
407
484
401
422
421
300
395
474
376
361
407
597
486
424
496
488
414
376
473
397
440
408
352
499
488
459
435
508
550
338
438
403
376
369
409
427
543
372
510
356
377
375
407
507
349
436
397
578
315
460
457
409
364
378
376
341
377
378
493
452
344
391
482
542
337
506
537
237
423
423
486
532
482
407
385
500
453
352
459
352
466
457
544
447
509
466
528
439
482
407
413
379
600
549
510
493
455
530
488
522
518
448
484
500
501
439
531
584
513
436
543
581
603
504
538
491
429
568
476
517
413
506
479
610
589
658
585
492
481
532
503
548
598
609
551
598
570
444
587
530
611
534
561
570
659
566
502
625
582
576
475
604
442
555
607
576
605
535
598
600
580
485
419
574
548
538
572
559
470
539
503
456
397
449
425
567
534
480
451
424
438
555
545
613
484
482
497
464
555
508
407
520
445
464
468
622
496
381
502
446
418
406
520
379
405
505
389
618
592
373
391
536
423
353
521
430
466
418
442
479
408
374
430
469
385
359
494
388
366
406
405
324
584
434
387
421
441
356
423
371
443
504
382
418
407
453
435
442
491
447
463
459
418
476
524
528
516
405
477
360
378
487
392
436
402
483
353
292
379
397
360
338
372
286
350
440
522
369
484
542
390
386
369
504
420
379
394
432
329
466
333
355
499
390
447
290
469
485
552
495
312
529
392
493
329
408
446
509
417
443
538
442
412
544
416
430
429
392
416
521
298
337
507
355
442
471
404
370
417
354
323
440
308
410
440
345
503
566
462
339
460
452
398
534
443
422
436
414
370
463
428
417
396
425
449
358
411
358
512
339
461
336
488
347
353
289
437
539
357
426
320
521
364
391
345
396
468
353
452
433
421
505
400
381
459
441
418
271
408
420
449
485
399
378
483
426
348
409
342
449
404
549
432
587
495
513
344
517
505
274
368
452
596
410
472
379
380
410
401
443
407
552
421
468
383
388
473
315
420
426
380
403
441
498
368
345
417
471
439
391
425
467
472
462
377
489
393
531
384
348
582
413
424
451
419
339
345
534
318
366
433
449
481
442
330
510
415
522
442
526
496
494
421
431
440
374
427
385
361
307
433
462
401
488
526
510
452
459
423
565
413
386
342
386
416
491
407
426
484
570
440
375
510
476
475
462
477
530
464
532
557
583
460
503
405
444
494
511
629
499
515
565
556
487
472
609
640
566
431
518
540
616
634
547
585
451
528
561
624
490
659
529
623
633
686
693
545
640
570
657
569
663
614
660
658
629
722
636
596
538
718
709
541
612
684
653
614
669
637
747
743
718
617
532
598
690
824
632
697
617
564
726
709
605
726
645
671
720
585
609
591
699
641
595
684
573
605
666
513
654
555
509
661
667
490
689
593
667
438
593
569
558
455
603
629
472
511
539
491
507
530
552
568
551
711
426
554
486
637
485
418
497
422
541
320
462
381
501
502
496
401
560
544
344
509
558
412
431
432
438
448
533
464
573
421
433
466
546
357
504
520
390
405
397
443
467
346
417
353
389
328
370
429
367
294
473
394
387
591
519
447
376
459
428
386
455
478
441
445
517
461
494
303
391
541
354
422
473
405
465
476
408
429
513
502
470
375
430
507
483
414
314
441
406
445
311
453
355
374
326
255
430
392
423
531
364
405
362
424
416
371
354
354
209
363
363
414
269
348
327
384
346
398
408
336
329
523
378
289
251
368
393
352
504
414
350
445
446
444
452
416
448
381
488
460
493
552
473
435
559
578
489
440
473
640
653
602
622
721
619
757
649
648
766
646
704
720
723
856
842
755
736
807
884
816
800
894
846
963
813
869
744
862
824
995
834
879
860
771
793
883
849
891
812
846
893
735
700
700
728
749
672
786
600
656
609
567
743
617
655
469
651
662
488
441
505
499
450
450
436
463
357
292
350
295
314
380
368
166
195
225
226
229
230
196
164
194
155
234
195
166
225
138
100
147
161
66
136
13
168
135
242
220
0
172
69
137
211
215
287
238
19
239
316
228
257
266
283
294
249
198
247
281
274
334
383
332
434
483
467
324
390
426
471
328
465
468
545
447
387
327
538
349
436
553
410
387
414
505
376
388
438
468
456
406
455
556
463
400
297
388
394
370
342
468
425
499
374
342
416
460
368
513
474
360
341
445
518
371
437
409
592
392
372
439
368
458
365
405
362
425
370
486
442
455
281
574
383
431
507
448
422
497
413
436
450
451
504
408
604
551
387
522
426
386
433
432
405
497
468
474
427
416
405
453
353
524
416
585
440
457
430
419
474
351
411
453
397
304
490
509
471
442
291
470
474
449
430
427
393
324
561
515
255
351
670
355
461
474
499
397
439
323
300
452
431
362
452
481
455
365
374
449
401
469
517
447
362
358
402
421
464
410
368
620
420
431
499
515
386
280
438
510
492
472
513
495
480
575
518
347
443
395
446
562
573
464
447
591
400
439
561
532
500
500
568
462
579
551
593
515
518
575
536
538
477
447
516
572
492
587
543
572
471
493
518
477
490
509
514
617
373
667
460
451
616
569
512
570
501
520
567
561
490
557
526
557
457
444
452
603
587
665
539
604
688
490
554
564
584
525
548
630
479
535
650
505
576
421
513
549
611
512
573
545
558
489
508
505
509
542
465
530
498
606
667
631
535
479
561
541
480
610
429
431
502
507
480
537
535
551
418
453
585
491
371
482
498
438
587
445
409
502
427
427
397
457
620
563
423
396
420
359
394
504
375
434
413
464
419
487
534
399
411
482
388
366
456
473
486
341
367
415
449
507
333
439
479
254
465
463
444
370
502
517
469
518
386
448
364
411
390
429
433
518
436
405
504
366
363
421
431
342
465
404
441
399
357
370
382
499
385
396
449
228
283
367
389
528
323
456
404
395
313
441
502
444
379
545
439
409
417
459
416
523
418
384
462
427
442
423
479
428
582
402
462
438
463
505
462
534
448
387
432
461
404
442
425
294
375
394
524
432
320
517
379
424
363
436
421
476
403
468
432
291
463
407
451
322
398
334
370
460
465
455
339
409
325
461
447
459
265
353
447
368
398
455
376
432
482
452
387
400
275
397
386
444
349
394
418
419
465
515
498
338
487
410
511
430
441
446
446
475
404
359
453
444
453
416
406
531
419
371
280
384
450
288
398
533
527
307
352
354
339
448
335
409
452
424
479
479
392
382
446
440
535
306
393
382
429
460
443
434
471
391
552
348
409
505
358
459
490
462
491
383
372
398
597
502
499
523
376
464
486
371
478
340
394
436
421
385
430
480
415
311
380
539
415
493
361
332
417
421
503
322
423
469
346
413
500
422
420
482
507
446
431
462
435
481
389
406
393
427
328
391
326
461
432
419
495
400
397
372
414
478
385
616
408
394
410
481
499
369
447
491
395
446
417
331
482
473
431
412
681
437
440
500
553
490
529
534
534
484
494
567
449
527
511
623
472
524
610
510
544
436
620
460
515
441
564
507
395
615
564
417
665
755
592
496
686
632
679
630
556
507
602
563
611
701
672
665
630
518
501
511
556
610
569
567
683
640
741
676
699
679
632
691
554
662
688
628
689
611
738
643
642
561
700
552
672
566
588
655
745
693
631
711
558
574
579
616
511
684
622
623
522
674
608
655
661
640
508
623
514
665
602
578
526
529
546
468
583
653
558
481
650
461
526
465
579
481
559
538
490
496
544
367
496
483
465
429
487
542
432
521
431
444
489
484
528
510
507
510
484
508
482
502
390
445
430
517
447
417
402
445
439
534
493
340
407
426
394
430
428
508
514
512
324
435
411
411
536
392
451
430
381
410
489
370
434
445
488
495
404
392
402
445
384
412
475
307
395
387
412
506
429
392
426
484
505
474
399
415
487
471
450
414
444
374
453
390
363
434
354
448
376
440
317
500
490
356
342
392
464
338
438
419
244
364
497
257
354
311
403
389
393
450
482
359
388
344
309
270
395
373
404
389
388
460
367
417
306
477
292
419
356
467
434
395
489
411
415
369
562
516
452
533
549
526
553
593
544
589
553
643
613
467
643
580
715
650
738
724
678
632
814
828
676
764
696
791
834
675
780
872
814
679
801
895
779
794
866
912
883
888
936
799
857
815
867
789
897
852
850
822
853
702
699
772
802
810
801
768
686
794
753
663
722
625
530
509
592
451
476
676
569
426
620
467
309
382
426
421
275
345
438
211
442
298
201
199
187
294
179
231
40
131
254
288
229
233
161
132
190
141
160
160
192
176
288
195
225
137
304
300
131
160
136
198
55
181
260
303
199
300
297
268
298
276
250
231
318
301
270
226
320
235
353
274
350
423
385
443
325
371
474
310
399
487
366
345
423
346
345
352
311
354
456
349
380
534
444
473
382
486
452
422
512
429
440
428
467
380
463
513
510
409
400
411
578
414
374
398
408
324
343
516
425
426
363
375
404
449
341
541
433
448
469
449
364
429
463
414
481
406
442
507
376
352
342
364
439
378
410
416
396
434
476
364
456
543
490
366
270
479
335
447
516
400
412
358
289
444
430
497
477
332
466
291
408
399
545
451
441
345
467
562
409
395
515
478
371
506
481
494
382
472
378
541
438
568
465
499
385
288
396
387
345
439
562
479
434
526
469
522
548
518
583
438
369
426
494
556
427
494
268
494
584
434
348
400
433
543
581
546
403
567
388
303
403
536
508
442
455
395
332
438
620
464
346
436
492
324
461
511
474
488
351
522
539
447
478
384
438
552
495
470
354
557
427
452
465
476
513
472
382
512
477
463
498
625
549
609
495
456
485
539
530
485
631
609
512
547
422
429
594
521
647
421
421
559
571
514
521
515
515
680
590
514
579
448
520
622
532
591
569
446
497
594
534
496
540
537
636
457
569
547
547
566
541
554
594
552
567
592
546
534
427
496
599
545
643
409
593
637
428
464
557
469
649
514
468
403
520
602
418
468
391
551
633
392
450
485
387
509
521
423
564
454
376
568
537
489
625
528
498
336
485
502
487
440
430
426
477
504
477
499
329
391
425
418
442
366
373
380
488
327
440
497
317
336
443
361
430
530
482
521
432
469
441
337
420
571
403
431
361
547
551
367
482
423
427
418
440
359
357
485
272
482
384
331
404
465
352
407
390
354
419
376
353
474
402
397
446
362
484
426
507
431
468
367
476
439
435
376
451
396
526
361
471
351
475
394
419
516
445
440
444
316
387
406
299
351
442
516
412
317
386
327
309
382
480
447
390
459
389
327
459
496
386
270
429
508
478
441
401
321
357
392
499
416
422
374
522
386
385
374
317
387
446
388
433
391
274
387
421
349
517
464
415
303
454
477
472
319
428
399
433
428
402
404
449
404
513
394
450
374
388
368
595
514
376
438
562
293
567
429
479
484
535
409
405
466
447
461
408
437
410
412
335
355
341
471
255
409
449
384
403
469
412
548
470
463
487
393
327
222
371
445
406
420
463
329
410
482
482
515
409
384
486
435
459
426
342
462
316
546
490
342
352
395
495
400
509
371
349
434
541
539
365
336
490
464
296
397
448
527
429
484
504
462
329
481
488
474
412
462
392
456
378
366
425
471
546
377
527
420
472
352
432
348
351
424
490
483
396
422
384
530
505
449
368
453
394
566
424
468
417
385
454
320
400
464
494
373
428
362
413
459
471
437
420
399
423
530
405
517
428
553
404
497
424
473
505
474
421
380
316
542
451
567
505
570
470
459
391
467
460
533
595
468
613
526
501
612
663
523
582
499
647
616
562
458
577
621
527
631
543
613
596
571
457
577
583
621
552
616
560
675
579
639
660
792
634
623
555
586
646
664
604
651
559
607
667
697
720
638
630
727
665
616
756
737
609
627
636
665
573
581
718
686
613
597
665
645
588
706
612
579
623
657
649
635
700
593
570
452
532
735
589
524
557
522
644
573
613
577
520
548
546
709
505
554
504
523
528
494
415
629
540
474
493
511
454
634
398
451
437
488
477
441
515
447
421
486
469
525
517
462
521
464
479
490
486
370
511
496
538
471
543
480
360
351
440
441
441
464
424
358
447
498
395
336
470
497
458
416
444
348
524
471
282
563
456
434
459
529
435
394
472
572
387
493
383
516
464
477
446
451
421
474
398
526
497
285
270
452
473
426
416
389
444
371
453
388
515
436
402
415
337
443
328
320
498
460
497
440
419
263
565
565
348
266
416
387
361
404
332
309
480
470
421
418
271
313
334
378
449
348
384
353
376
335
399
382
466
441
256
348
214
455
302
423
386
414
454
527
369
362
439
406
457
458
413
528
429
548
512
596
513
576
679
753
588
557
565
690
570
605
667
714
689
702
819
804
622
779
827
835
882
801
813
827
763
885
869
790
727
835
768
953
860
835
852
810
790
903
840
812
768
842
889
764
816
939
864
902
765
718
630
853
737
706
737
655
592
700
495
627
632
699
517
516
480
397
475
556
345
380
431
297
377
386
393
346
331
204
311
241
220
173
225
412
310
272
149
193
279
200
32
39
168
271
161
152
135
172
187
171
209
204
281
106
42
158
230
230
151
113
193
116
373
325
229
283
280
159
328
261
242
189
296
346
299
345
309
371
291
280
494
331
451
439
400
242
410
379
349
456
360
353
397
381
532
478
526
447
466
445
528
445
586
421
375
336
499
485
418
411
388
490
449
314
424
495
463
470
376
412
361
418
429
445
433
399
397
430
503
429
379
441
443
344
356
452
517
531
391
437
414
416
628
455
443
313
413
436
492
455
541
380
385
331
461
503
408
424
341
464
559
437
369
402
342
564
542
377
488
378
369
477
446
401
597
417
347
382
429
416
475
547
397
394
600
543
484
376
420
377
413
457
412
464
499
433
448
420
386
526
419
338
390
477
505
362
510
468
378
397
405
340
443
392
514
468
448
370
414
513
443
360
297
487
424
419
515
402
323
531
329
381
286
473
511
485
582
557
433
355
434
496
456
408
588
398
480
618
525
468
561
494
459
398
428
440
285
430
435
448
482
545
521
502
462
534
438
381
663
440
508
309
496
382
389
544
499
477
527
560
405
484
633
444
417
464
608
566
515
492
438
523
474
539
528
542
571
506
587
427
592
524
621
554
467
530
656
570
580
474
492
468
594
605
462
420
505
553
604
554
586
614
504
461
478
571
517
625
502
685
576
636
478
564
581
473
566
569
465
652
599
550
517
411
453
447
419
566
495
427
430
536
427
562
631
592
540
482
472
509
555
474
397
467
556
501
449
457
500
655
370
463
545
492
550
483
501
436
447
547
504
522
416
369
507
507
615
436
502
407
523
394
493
408
472
363
452
337
450
391
388
525
471
462
417
501
413
423
416
489
398
399
457
528
278
484
422
433
460
318
401
349
409
491
415
401
335
337
454
495
464
407
381
427
528
320
385
437
382
458
520
466
365
568
361
448
293
509
337
420
547
463
381
457
461
540
408
425
395
437
419
410
403
575
428
478
509
403
379
442
435
412
364
461
465
430
343
470
339
469
327
519
431
377
404
406
383
381
487
530
401
344
382
393
357
378
423
332
385
343
358
456
390
468
670
395
478
418
332
574
414
464
576
529
431
389
405
463
420
410
435
502
442
378
471
458
436
491
362
440
527
468
436
346
513
353
474
319
578
348
385
369
406
436
346
442
319
427
442
498
342
374
437
368
380
323
540
392
360
342
348
323
381
369
302
305
382
495
452
517
464
500
366
311
281
452
477
349
532
418
484
369
425
356
305
418
458
458
388
434
497
380
509
361
370
344
410
243
410
479
345
501
474
367
471
283
403
498
434
517
352
468
392
296
413
361
430
403
411
444
408
387
506
456
368
387
306
347
528
353
409
300
325
370
430
288
383
413
440
457
393
476
339
446
424
424
541
412
412
356
493
404
389
542
421
388
356
401
511
408
443
570
435
304
395
382
344
465
400
449
376
511
391
401
396
461
523
538
459
429
377
473
457
515
493
472
499
494
492
373
499
471
447
510
552
422
493
479
436
520
590
484
506
548
490
561
631
481
600
452
447
515
472
485
600
622
544
411
548
520
601
557
469
576
560
609
649
719
583
638
615
513
662
569
766
453
677
564
597
627
612
636
599
698
596
551
601
653
658
652
624
675
651
606
592
663
689
720
592
639
620
692
700
669
733
675
556
657
723
591
602
553
742
559
674
625
740
562
705
586
603
579
609
563
666
543
682
684
618
543
555
578
611
594
469
515
483
537
530
543
523
507
589
561
521
500
461
483
545
598
523
483
470
510
458
498
515
482
524
498
586
475
469
503
456
474
361
508
411
489
432
519
488
390
440
471
475
385
509
333
449
526
424
358
495
396
369
442
420
509
493
379
412
349
438
387
469
425
473
348
522
506
555
472
519
447
355
458
482
389
474
479
446
420
515
436
456
431
302
497
335
431
530
410
348
439
534
472
447
392
460
418
342
414
380
379
416
511
375
342
308
476
421
363
373
306
422
424
376
381
448
451
278
367
304
438
302
395
360
333
391
485
364
396
276
317
282
369
414
373
465
382
397
410
437
524
484
438
488
279
536
452
358
459
465
473
472
515
369
459
468
561
531
557
492
652
668
626
517
690
734
694
681
689
597
777
755
740
799
706
784
739
773
732
775
766
761
791
825
837
784
832
832
834
848
786
907
931
898
843
857
897
844
805
791
805
902
758
782
828
775
718
763
714
698
666
626
705
699
635
546
448
523
527
475
456
462
514
384
433
442
487
417
375
301
335
280
313
241
210
201
314
225
281
190
346
202
210
197
88
164
276
190
242
289
63
313
106
201
194
240
193
71
175
149
140
123
299
262
285
245
197
174
271
227
386
208
265
436
222
187
220
188
377
324
309
379
211
331
405
294
296
375
336
404
455
473
453
336
433
485
400
432
404
399
434
358
479
379
422
402
531
276
452
452
400
414
355
415
479
284
529
434
382
384
419
460
377
514
423
428
407
365
420
417
430
433
454
364
354
403
348
383
331
418
616
428
493
562
541
354
389
382
489
450
357
463
376
390
416
507
452
419
412
419
444
491
427
479
455
433
371
342
398
413
378
381
468
425
451
504
473
555
393
442
401
517
445
515
409
360
386
486
399
436
428
387
462
482
490
440
431
503
340
472
454
443
314
383
524
546
544
470
446
412
473
352
366
558
424
501
587
484
398
508
412
320
398
399
431
353
415
384
393
431
504
511
285
534
511
348
480
594
453
451
438
430
369
496
486
553
484
355
441
518
405
588
511
469
571
600
494
563
353
385
521
596
367
516
492
440
497
538
455
424
479
466
417
351
525
387
535
526
710
425
504
458
505
652
508
504
528
473
487
588
562
553
390
503
459
457
447
605
567
534
642
660
465
561
557
506
442
584
529
563
513
557
555
505
664
602
439
611
485
461
757
567
522
541
510
571
599
511
492
540
508
572
636
589
477
433
620
549
502
516
563
636
535
504
502
393
543
499
601
408
496
553
457
655
568
616
564
550
559
632
484
475
499
580
558
497
566
533
445
496
483
448
458
503
534
542
433
485
443
563
524
516
392
455
415
451
527
498
470
452
430
423
559
507
364
447
569
587
457
488
540
383
402
394
492
483
387
461
504
572
552
502
392
293
396
438
398
406
440
430
440
478
396
389
506
411
475
451
425
408
450
344
366
418
459
410
407
446
357
443
284
353
409
379
388
347
385
403
384
571
391
388
331
416
447
408
454
376
353
386
425
537
408
481
349
490
431
362
425
458
366
399
370
327
339
369
460
378
395
405
428
443
406
429
568
458
494
419
432
485
494
483
466
520
543
485
357
468
421
350
429
528
466
355
420
339
434
430
474
568
431
351
582
493
461
419
445
432
375
291
458
445
457
316
521
502
372
483
412
425
367
431
499
484
462
411
387
428
356
438
461
439
351
344
312
416
489
478
414
414
532
577
430
337
397
479
458
398
429
597
434
441
301
428
415
426
547
518
341
339
423
433
395
434
316
499
442
427
512
417
451
465
486
443
437
433
413
423
399
441
283
426
474
318
351
447
406
343
408
348
321
488
351
376
425
280
407
399
452
390
343
442
464
442
436
356
410
449
427
527
536
374
363
378
408
391
312
405
393
476
280
325
553
450
405
585
327
506
338
366
391
353
398
471
412
405
402
513
301
450
353
391
384
424
585
437
336
509
434
370
473
465
290
376
626
357
515
435
418
451
374
428
325
543
412
521
389
465
439
468
442
462
483
397
583
467
523
378
495
512
436
537
352
542
435
333
576
614
490
443
488
410
529
508
531
407
499
462
585
528
606
631
527
594
545
562
479
432
560
643
527
581
589
460
574
572
512
510
590
706
670
585
668
537
539
606
711
500
661
593
593
642
524
595
561
576
524
642
825
665
753
610
663
720
571
628
536
669
554
758
696
563
691
685
592
682
627
624
603
625
759
638
597
752
664
642
625
647
618
528
605
584
686
623
633
584
550
721
578
631
636
492
571
549
635
679
492
451
678
603
553
468
487
503
472
550
482
515
597
461
489
518
410
531
613
513
488
535
415
456
376
532
586
531
421
612
460
456
379
492
349
347
503
493
408
517
357
492
467
461
524
518
451
473
403
405
513
428
593
490
443
411
416
420
385
416
309
395
398
473
438
439
523
424
466
488
389
469
333
457
445
452
485
386
376
446
399
521
427
407
382
465
454
363
429
432
443
450
414
423
434
344
529
482
347
432
287
393
491
330
489
404
365
361
411
441
373
383
522
393
357
369
421
275
260
414
357
373
324
459
281
275
364
405
477
363
328
433
459
452
292
372
422
339
372
452
430
437
330
454
518
390
381
539
394
458
525
520
564
569
644
524
500
468
499
534
429
629
549
604
525
660
616
664
634
749
735
723
685
636
795
635
770
763
851
811
760
723
878
753
739
854
887
866
902
784
908
909
800
843
779
837
929
864
873
858
893
866
842
819
891
739
760
842
752
770
691
707
642
694
733
680
765
572
426
533
563
601
510
579
521
497
424
540
436
352
480
322
309
392
309
287
255
286
343
252
369
231
236
160
132
146
252
177
178
144
79
180
193
214
235
124
265
129
53
211
218
229
67
185
157
187
165
172
132
160
223
175
257
270
299
126
280
254
198
297
316
240
298
307
230
330
352
315
249
413
348
424
399
453
434
623
481
455
511
385
436
433
429
519
396
500
412
438
409
416
437
434
265
454
360
416
446
318
418
433
436
409
420
441
406
360
450
355
396
394
329
427
458
466
517
390
411
470
416
332
395
486
420
431
439
468
443
443
331
422
498
464
506
430
447
367
388
436
400
399
438
513
399
448
461
414
489
335
451
489
432
374
381
412
417
390
465
349
477
500
371
387
482
376
554
479
489
512
457
390
438
495
336
363
362
366
390
367
370
375
351
400
491
531
414
415
449
444
459
437
565
363
385
520
286
323
356
529
476
344
428
398
430
418
418
412
384
410
354
441
554
433
418
376
531
446
349
457
444
402
465
468
475
351
443
471
458
405
370
418
493
558
600
467
371
478
428
423
393
442
360
390
456
529
601
413
554
413
577
586
451
385
508
349
578
508
452
505
497
523
459
655
492
490
518
597
524
569
532
587
468
567
527
568
545
483
509
443
518
529
541
395
505
578
578
530
597
473
470
471
560
587
465
501
458
406
576
520
505
497
630
599
556
566
551
615
426
563
632
544
675
556
500
591
572
518
548
510
555
681
425
505
473
574
484
513
595
479
500
520
494
524
612
524
509
372
496
588
534
588
447
480
573
487
443
534
427
550
694
457
499
464
441
482
437
405
468
390
434
423
363
443
453
478
440
486
530
438
472
463
399
513
429
387
424
483
510
439
355
481
415
421
347
533
398
442
480
466
450
523
435
438
310
379
440
420
389
512
444
514
456
342
456
367
453
465
463
472
383
534
532
398
505
461
438
415
326
465
464
327
426
526
455
471
521
386
505
479
334
439
442
422
451
442
511
453
359
410
542
405
484
420
440
416
404
401
297
464
469
529
408
460
433
464
495
427
338
448
439
430
372
470
391
319
427
427
379
397
472
448
435
270
417
450
406
323
435
441
501
506
436
314
486
365
425
394
383
431
465
251
502
375
369
448
394
488
313
308
386
415
496
388
347
443
371
417
485
353
359
361
455
434
321
480
508
450
396
442
400
407
416
347
421
466
421
486
443
524
411
447
482
405
417
353
510
365
405
387
383
317
382
376
357
465
409
290
529
451
403
507
478
374
461
342
525
447
376
373
450
448
417
389
319
406
560
509
510
455
449
371
476
515
427
487
369
380
327
362
434
420
469
349
376
390
450
518
350
433
560
442
379
512
299
526
490
490
426
364
524
475
381
452
417
509
499
426
552
467
371
486
448
526
428
406
212
368
499
523
460
444
466
285
354
413
476
430
546
396
316
427
392
409
539
460
441
335
432
480
468
475
483
477
471
501
295
504
573
536
389
433
481
452
315
477
448
399
496
489
443
411
493
443
456
388
506
410
448
421
565
452
359
458
299
417
543
538
452
465
411
467
438
620
510
470
504
466
506
488
437
560
482
435
438
552
543
591
696
500
432
506
550
541
504
502
457
464
470
556
566
537
581
502
668
557
552
572
669
681
675
679
598
695
600
756
669
664
641
559
550
724
665
691
690
735
436
644
539
518
587
531
632
528
721
681
638
663
702
611
596
763
616
689
698
622
650
633
781
554
669
577
590
674
648
693
724
636
621
537
602
618
561
701
635
545
552
535
557
611
557
627
506
425
632
568
559
566
548
521
515
586
603
518
422
555
527
506
557
601
557
491
543
474
510
505
533
481
393
553
555
515
447
511
505
428
507
372
522
617
496
516
562
456
471
479
438
517
339
282
480
522
318
416
533
427
455
430
353
428
345
552
462
328
311
448
424
412
379
390
347
539
391
535
441
396
480
430
358
351
405
460
387
331
449
411
403
493
521
479
422
457
363
299
438
495
454
325
405
363
459
423
480
502
273
480
409
346
312
340
407
447
442
366
393
386
477
491
345
401
542
326
402
246
256
382
298
250
498
386
351
543
282
386
291
458
394
356
424
344
356
378
465
514
364
394
437
441
304
466
465
403
530
466
539
505
478
438
413
501
367
472
506
473
570
579
488
558
667
685
744
599
755
647
574
606
780
695
759
762
740
742
745
861
918
911
814
852
845
906
789
838
828
754
901
838
888
780
885
985
833
896
749
889
694
879
610
842
688
737
712
698
722
740
618
716
576
709
716
499
679
591
587
503
610
412
441
479
420
312
386
483
399
226
331
323
301
267
261
236
248
218
269
261
260
286
210
144
388
127
237
122
258
233
232
245
234
251
216
155
180
99
106
148
92
187
183
153
201
240
171
214
171
257
295
296
167
193
275
293
278
276
263
440
337
269
384
278
342
280
322
308
384
270
330
297
440
600
511
493
374
461
386
477
428
514
404
456
384
495
324
441
337
377
382
489
373
389
559
404
405
479
416
342
403
404
389
504
407
415
474
523
566
449
409
380
540
383
493
418
485
312
351
385
449
526
464
431
296
429
470
495
496
377
423
411
395
406
277
439
337
304
394
444
475
540
359
356
463
447
417
585
442
438
419
353
467
361
447
408
432
453
545
398
472
459
514
436
423
445
461
481
297
342
332
517
335
454
457
370
439
300
467
520
442
461
488
426
474
465
363
449
401
334
476
522
427
405
307
475
556
464
392
388
424
453
403
368
459
409
452
400
474
398
417
413
445
428
460
587
483
571
324
423
395
543
465
427
374
552
559
546
419
459
473
415
546
540
499
436
454
437
424
333
440
444
512
473
400
296
472
500
487
519
616
396
487
420
462
510
450
551
486
543
424
476
534
434
561
509
512
511
490
468
558
532
486
591
447
578
464
531
608
521
637
644
519
498
548
545
561
502
520
556
575
575
439
691
535
534
529
609
455
463
595
656
483
535
497
505
434
459
494
643
530
521
492
503
566
473
553
615
528
547
494
433
543
450
543
519
607
536
474
610
387
577
580
518
343
516
401
444
488
592
586
669
503
540
410
447
488
502
558
596
432
388
405
394
457
502
490
545
407
459
535
445
405
381
420
492
314
456
303
451
513
456
476
528
355
480
483
443
413
494
533
478
386
457
437
644
426
489
484
382
483
426
403
399
308
461
401
560
413
437
380
464
447
547
539
538
386
457
388
432
458
483
476
453
404
440
445
434
451
387
436
487
416
403
499
482
426
592
511
473
510
397
473
263
504
421
488
322
459
416
425
471
450
351
504
370
490
340
355
438
446
444
428
373
311
349
418
317
307
426
399
477
446
438
415
426
435
351
445
416
459
426
534
459
436
366
410
480
413
383
379
407
367
478
426
518
407
441
426
446
482
497
478
418
478
406
388
361
490
414
482
424
505
508
401
369
373
353
487
501
469
426
454
458
467
450
437
449
418
533
412
491
450
485
271
392
371
368
312
515
462
327
444
448
491
319
433
320
352
564
223
459
430
352
333
468
427
496
441
363
411
401
390
435
483
344
460
473
481
384
388
436
539
453
545
455
434
449
415
425
432
486
410
467
432
468
339
480
393
327
373
390
427
430
556
350
404
416
392
366
354
424
512
617
458
415
334
461
522
499
375
405
451
369
472
340
365
343
332
393
466
459
447
337
413
527
360
473
509
421
459
560
507
337
428
415
386
324
469
462
429
570
571
470
451
411
389
381
439
421
450
443
463
451
477
464
399
460
436
486
383
515
606
424
325
426
492
486
397
410
497
418
446
494
500
552
621
515
522
472
395
452
484
472
391
469
402
473
485
571
465
421
395
398
468
558
635
503
540
551
487
569
478
529
509
575
576
588
583
614
514
516
512
555
570
510
521
550
503
609
619
538
632
609
504
631
579
650
631
774
604
776
676
829
672
622
574
571
570
598
550
487
664
569
581
701
614
754
639
568
756
576
660
562
636
670
747
644
671
510
649
614
652
785
616
607
608
523
545
655
726
575
548
571
653
641
584
566
594
613
590
610
702
649
643
601
685
579
604
549
517
458
608
541
608
609
495
542
531
452
662
551
550
596
558
459
523
459
525
517
486
429
509
430
488
587
614
515
453
480
520
534
445
394
484
412
481
488
462
475
514
534
462
431
445
527
438
432
492
388
405
508
482
413
546
390
446
376
395
413
243
459
478
483
373
355
441
483
585
387
488
450
505
410
419
382
388
469
475
447
355
409
441
446
354
476
341
367
456
393
438
358
426
437
514
406
403
399
469
306
421
453
415
506
363
436
442
461
300
312
410
366
337
384
285
271
361
398
305
412
396
450
352
336
316
490
497
357
301
249
356
309
301
316
303
454
384
444
284
472
358
432
436
427
431
401
449
368
468
500
587
566
474
522
372
496
502
514
520
594
579
573
599
547
573
551
599
641
735
646
637
659
762
797
729
755
818
755
764
745
835
748
824
787
843
809
871
802
839
831
839
887
808
857
813
941
912
739
888
882
839
849
833
769
917
760
830
794
750
676
730
697
645
671
799
719
578
662
505
599
642
596
492
431
450
455
375
339
449
312
314
314
354
362
223
278
285
396
349
289
265
208
176
259
299
77
256
170
73
161
148
197
162
237
173
198
163
102
216
115
263
205
217
208
255
135
275
200
223
131
97
216
328
291
246
390
123
209
289
340
235
392
524
261
278
401
439
406
348
349
280
390
378
375
365
441
370
400
453
386
345
484
509
507
424
375
469
398
328
492
418
449
551
413
391
453
452
434
447
409
458
490
343
446
296
342
428
480
357
368
402
410
565
328
476
308
441
488
404
411
422
433
539
384
426
447
382
417
461
562
481
605
363
377
417
431
421
331
399
481
375
533
410
404
371
461
451
456
389
391
359
446
367
458
348
495
431
388
492
393
371
429
520
362
489
463
469
383
585
548
562
358
412
455
415
417
515
440
378
421
476
497
524
465
454
418
582
470
430
403
369
482
425
429
368
370
416
421
444
488
401
422
453
443
521
411
400
376
535
311
386
462
454
462
376
450
464
551
492
552
459
376
445
429
373
473
465
424
480
401
398
407
482
490
493
411
570
526
533
557
578
576
564
401
509
354
456
469
540
585
477
445
367
361
492
529
645
421
314
513
491
566
567
399
395
419
475
507
602
442
477
471
497
503
568
449
531
389
640
456
506
494
446
451
462
613
561
352
674
573
515
587
542
615
707
651
465
486
490
578
608
516
421
487
542
439
477
493
432
574
522
650
620
686
442
540
515
669
573
443
611
547
650
457
498
627
463
548
575
511
556
504
677
627
494
344
533
474
541
520
460
462
664
592
546
422
585
560
428
433
476
472
428
533
495
501
462
443
579
409
449
448
458
464
558
503
508
588
441
616
497
455
572
469
440
592
413
495
509
360
562
521
487
375
453
585
526
450
386
438
575
489
355
401
342
469
466
356
478
399
376
340
488
542
456
489
345
465
484
484
490
338
367
446
473
398
381
442
357
289
465
518
373
445
456
514
425
343
444
476
355
461
459
438
376
394
587
394
527
390
374
459
458
454
489
473
453
526
493
427
427
436
293
555
441
378
418
408
389
457
497
264
349
465
315
359
391
380
410
553
435
495
424
551
528
399
342
350
575
411
372
516
340
409
422
418
373
371
352
456
539
453
301
581
375
429
508
372
417
471
479
537
518
410
371
592
365
464
394
419
487
457
469
394
407
431
434
337
334
386
380
486
416
282
422
237
537
365
459
529
366
332
380
444
456
496
512
509
366
486
533
479
454
440
504
382
359
409
442
569
483
556
517
335
321
415
417
473
390
367
448
433
524
376
379
348
425
433
481
356
417
444
342
390
384
435
389
431
545
409
475
514
426
565
435
440
452
387
495
322
489
411
370
416
442
432
532
314
410
476
418
473
393
442
381
370
459
504
381
441
429
465
395
376
464
623
380
459
473
413
496
404
545
483
413
393
372
476
428
373
376
424
536
540
472
291
454
418
465
417
421
420
450
377
560
539
491
425
380
498
338
429
410
335
304
479
367
602
461
477
488
453
523
434
509
432
535
509
604
257
508
580
530
510
546
611
428
483
485
501
577
463
627
540
437
403
594
430
468
619
371
622
660
473
599
624
555
525
534
649
529
716
515
553
456
535
493
569
659
597
553
678
643
537
547
584
588
634
722
591
626
673
696
538
678
551
723
644
616
704
532
721
721
471
693
852
663
685
753
588
671
610
780
647
626
603
683
707
671
516
689
797
581
675
683
620
544
680
575
621
773
523
561
612
658
755
740
607
622
557
682
486
677
568
565
622
529
636
626
637
661
560
604
498
400
444
522
477
572
536
487
526
372
559
565
423
559
524
537
458
384
364
476
479
461
524
443
613
542
524
334
518
411
392
460
499
411
456
388
384
594
499
341
286
497
347
382
448
447
401
410
404
516
483
372
414
286
391
477
489
517
307
356
374
464
430
462
413
425
396
422
349
360
498
439
337
427
498
427
439
481
472
650
434
387
400
497
437
472
405
355
467
363
412
424
330
435
392
432
392
371
339
383
465
448
398
493
437
470
420
355
406
388
410
530
453
488
202
366
330
333
445
336
277
337
421
422
343
447
292
448
362
354
381
397
337
401
442
401
302
464
491
487
457
441
587
453
438
479
508
470
460
492
452
537
373
417
538
578
518
361
525
635
643
627
572
579
709
602
595
663
641
898
664
797
872
723
729
820
734
826
911
812
743
750
833
774
826
791
834
797
797
971
894
900
835
853
892
836
795
805
680
862
836
764
856
748
742
791
692
709
615
635
565
685
659
627
467
570
509
545
563
438
495
442
394
437
405
308
360
326
309
313
310
272
315
367
257
324
263
239
179
215
212
175
241
335
266
166
140
141
250
118
124
266
228
281
139
65
258
79
305
172
219
227
289
174
148
248
191
279
201
364
200
88
180
233
243
351
325
157
372
354
294
419
336
258
249
210
498
425
400
486
336
348
326
354
428
384
442
450
436
510
535
476
435
572
361
387
505
331
439
429
428
467
412
256
396
543
341
333
518
499
397
288
477
526
338
421
427
408
335
456
462
451
503
448
545
501
479
457
392
378
379
424
331
432
608
309
492
553
422
374
439
345
389
482
475
565
420
409
409
414
387
401
309
389
415
480
368
541
518
414
350
529
394
531
438
450
528
510
306
370
620
472
523
405
427
439
377
356
309
453
471
432
364
399
368
477
417
450
439
513
287
278
475
373
438
489
310
480
406
455
454
516
416
364
522
489
326
388
433
508
409
411
381
455
546
371
370
570
532
437
410
502
389
460
395
479
437
484
471
427
391
394
452
503
593
410
471
409
477
427
344
355
386
404
450
370
491
456
448
489
502
525
269
424
616
549
502
570
426
471
437
483
533
466
458
494
608
439
573
470
537
633
484
604
471
585
615
605
512
624
425
535
362
558
515
564
613
671
528
461
576
495
531
534
583
482
523
498
625
605
597
529
490
547
578
602
660
479
499
434
519
644
553
613
480
599
487
606
554
494
422
470
559
572
491
524
522
493
470
455
563
521
568
434
636
487
715
492
488
461
592
552
500
499
581
527
476
516
460
392
433
658
514
539
389
517
402
475
532
483
426
557
583
477
473
510
535
466
418
362
429
383
401
497
395
462
394
453
430
438
422
436
324
479
465
573
542
517
321
416
374
463
462
345
314
446
430
473
368
399
451
432
416
392
401
473
480
396
481
371
339
549
413
469
390
377
369
514
420
373
354
464
428
454
393
465
406
393
444
462
340
523
342
544
467
484
350
367
426
401
401
457
361
408
410
305
526
400
432
394
358
378
454
388
368
401
546
457
526
344
428
374
493
428
384
502
281
506
361
408
444
307
362
415
358
377
464
459
359
525
464
466
261
523
462
399
475
461
364
473
478
455
420
426
449
431
438
444
425
443
475
447
372
373
379
487
431
412
481
362
359
388
438
339
303
538
484
453
493
357
546
431
499
397
480
403
400
480
428
410
481
535
442
363
478
372
429
429
475
458
424
386
350
408
411
491
470
397
514
411
434
389
390
369
394
410
384
496
526
286
459
402
344
505
406
416
453
372
396
468
333
485
441
408
428
384
503
516
421
521
429
294
452
444
422
333
400
414
440
380
414
404
473
451
469
507
462
366
426
320
360
530
481
418
432
234
593
424
358
468
530
425
432
319
465
488
331
503
424
392
367
447
491
453
381
485
359
444
436
381
334
518
405
371
416
438
410
337
405
377
390
474
482
482
450
231
480
370
361
443
439
355
414
504
505
469
475
367
491
320
390
550
415
465
312
462
418
497
428
493
519
317
491
453
441
472
497
505
349
470
444
512
516
492
450
456
558
391
522
555
559
496
570
539
537
440
648
563
572
577
583
518
456
580
570
610
522
534
598
549
488
690
591
487
585
671
554
488
729
611
519
616
589
590
690
698
567
527
674
670
576
644
637
618
643
620
645
704
477
649
675
695
615
709
683
670
759
578
543
497
657
529
706
766
710
602
632
611
612
694
659
675
685
640
646
586
529
647
601
542
517
629
652
742
603
630
608
464
511
619
601
596
657
535
544
538
565
638
559
586
643
639
539
510
483
482
529
491
552
466
505
518
438
465
444
419
524
459
416
314
504
513
440
387
446
571
473
485
580
451
578
412
408
534
504
435
475
528
415
491
465
368
351
438
460
432
430
504
466
371
381
398
446
442
476
365
470
440
487
398
439
428
432
419
486
427
478
387
393
475
419
488
540
357
428
432
417
357
477
432
533
546
574
392
476
410
508
454
423
404
436
323
326
493
356
364
469
414
467
512
416
394
416
365
424
434
520
434
485
494
342
319
343
387
387
357
314
297
385
445
340
342
415
452
411
227
326
403
369
332
381
408
336
467
387
313
422
315
436
264
350
378
322
346
397
468
488
420
519
502
468
565
514
524
564
453
703
621
468
516
697
598
780
649
625
646
624
694
753
848
669
802
651
806
815
917
795
717
749
690
789
764
958
964
839
817
878
942
883
827
814
889
802
835
860
780
699
863
929
695
849
788
788
818
693
697
747
629
768
683
658
760
600
474
590
572
623
447
399
576
413
509
381
353
405
379
290
321
340
366
285
380
295
349
117
247
226
314
242
107
159
276
221
182
152
271
159
276
164
161
51
268
179
108
239
133
136
165
177
188
189
254
159
148
148
239
255
188
209
164
267
189
327
310
208
263
426
351
458
257
327
338
454
361
424
292
411
293
382
454
421
398
399
444
436
519
295
428
460
398
500
435
395
450
483
523
352
391
407
370
367
426
366
487
369
414
473
426
385
397
382
342
370
435
451
435
354
446
409
495
357
362
465
402
444
482
448
430
416
375
354
406
481
355
443
415
393
497
431
533
490
443
432
529
369
464
545
457
412
461
378
407
342
498
418
464
400
550
420
411
405
385
414
477
300
498
454
660
457
445
430
246
415
470
439
445
437
550
477
453
548
370
454
449
396
451
320
497
392
421
314
520
399
368
441
513
457
357
498
475
381
420
503
461
287
424
455
381
469
430
388
428
410
291
368
411
370
439
508
425
515
517
360
468
515
422
459
447
456
391
521
461
411
414
449
430
527
409
413
489
467
403
445
334
446
400
569
446
371
554
471
503
359
392
509
324
448
413
459
508
539
555
475
592
498
422
525
445
509
500
449
555
498
447
570
574
383
515
581
463
419
404
589
456
469
555
561
598
572
489
566
495
641
399
547
600
586
528
478
512
536
527
581
609
586
553
561
522
556
501
535
558
624
500
700
515
545
562
596
587
520
457
558
409
637
488
549
612
479
558
592
631
596
462
541
585
619
558
501
556
508
449
629
526
459
583
548
582
511
518
491
518
615
533
556
535
440
534
476
489
415
474
498
558
446
401
493
432
380
466
406
496
495
484
476
459
534
461
447
552
396
461
541
519
489
531
361
385
425
305
513
416
481
539
430
432
537
526
520
420
495
459
440
423
445
368
433
362
390
370
463
475
471
446
485
451
421
493
451
543
368
436
493
452
354
450
377
466
460
447
323
375
505
385
456
454
393
509
428
332
452
435
327
345
497
417
397
403
524
476
500
433
326
351
476
349
443
283
408
355
504
412
452
537
510
375
480
443
352
485
330
423
386
447
497
388
443
407
451
475
389
326
401
468
451
388
454
553
480
308
501
335
560
372
510
577
455
597
459
539
404
473
389
403
354
430
408
267
305
490
470
439
444
383
363
468
399
448
323
406
321
337
362
362
390
426
344
457
559
537
316
523
391
523
413
486
348
377
346
409
393
415
393
411
335
346
390
400
569
384
385
456
409
476
402
275
446
434
489
382
428
430
403
310
358
349
488
446
441
456
438
339
426
461
445
333
492
347
531
317
383
507
457
607
307
396
610
457
439
349
385
435
481
339
300
506
434
428
489
522
411
479
223
542
363
355
505
496
324
317
378
355
342
326
425
390
466
351
444
432
361
435
454
421
408
